Time (s),G0_Short,G0_Long1,G0_Long2,G0_Emitter,G1_Short,G1_Long1,G1_Long2,G1_Emitter,G2_Short,G2_Long1,G2_Long2,G2_Emitter,G3_Short,G3_Long1,G3_Long2,G3_Emitter,G4_Short,G4_Long1,G4_Long2,G4_Emitter,G5_Short,G5_Long1,G5_Long2,G5_Emitter,G6_Short,G6_Long1,G6_Long2,G6_Emitter,G7_Short,G7_Long1,G7_Long2,G7_Emitter
0.0,1921,2021,2064,1,1979,2040,2055,1,3977,2051,1993,1,427,250,213,1,2039,2019,2021,1,1796,1961,2052,1,1995,2080,2057,1,2101,2075,2050,1
0.0,1923,2016,2062,1,1981,2041,2056,1,3932,2081,1996,1,422,252,216,1,2038,2019,2021,1,1831,1937,2051,1,2009,2069,2058,1,2097,2095,2052,1
0.0,1926,2016,2056,1,1983,2041,2052,1,3904,2081,1992,1,419,252,213,1,2037,2019,2018,1,1851,1937,2047,1,2014,2069,2067,1,2084,2095,2053,1
0.0,1926,2003,2059,1,1983,2039,2056,1,3904,2152,1992,1,419,262,214,1,2037,2025,2017,1,1851,1904,2045,1,2014,2052,2072,1,2084,2095,2053,1
0.001,1935,2000,2063,1,1986,2039,2058,1,3861,2192,1992,1,414,268,213,1,2036,2029,2018,1,1884,1867,2047,1,2020,2037,2065,1,2075,2104,2051,1
0.002,1947,2012,2066,1,1991,2041,2061,1,3805,2129,1991,1,409,262,213,1,2035,2025,2016,1,1932,1907,2044,1,2024,2050,2068,1,2064,2088,2048,1
0.003,1936,2010,2065,1,1992,2040,2063,1,3875,2156,1992,1,416,265,217,1,2038,2028,2015,1,1878,1886,2043,1,2013,2043,2066,1,2077,2100,2044,1
0.004,1943,1992,2069,1,1996,2037,2066,1,3837,2190,1995,1,415,266,216,1,2039,2029,2017,1,1908,1880,2043,1,2019,2043,2066,1,2068,2101,2044,1
0.005,1939,2001,2063,1,1998,2037,2063,1,3851,2190,1997,1,415,266,220,1,2039,2029,2019,1,1893,1880,2044,1,2018,2043,2062,1,2062,2101,2042,1
0.006,1939,1999,2059,1,1998,2037,2061,1,3851,2178,1998,1,415,261,222,1,2039,2028,2020,1,1893,1878,2044,1,2018,2045,2065,1,2062,2101,2041,1
0.007,1941,1996,2059,1,2003,2036,2061,1,3834,2191,1998,1,412,261,222,1,2038,2030,2020,1,1886,1864,2044,1,2015,2041,2065,1,2071,2114,2041,1
0.008,1945,2003,2059,1,2005,2037,2061,1,3808,2125,1997,1,410,256,222,1,2038,2027,2019,1,1914,1908,2042,1,2021,2055,2066,1,2064,2095,2038,1
0.009,1932,2003,2060,1,2005,2039,2062,1,3881,2161,1995,1,417,259,219,1,2040,2027,2016,1,1861,1878,2038,1,2012,2043,2073,1,2080,2106,2038,1
0.01,1938,1997,2064,1,2007,2040,2062,1,3861,2238,1995,1,417,266,217,1,2040,2030,2019,1,1882,1826,2046,1,2012,2039,2061,1,2065,2096,2037,1
0.011,1961,2011,2066,1,2011,2041,2065,1,3834,2166,1996,1,414,257,218,1,2038,2025,2018,1,1886,1874,2045,1,2009,2039,2067,1,2067,2096,2036,1
0.012,1948,2010,2066,1,2011,2040,2065,1,3834,2149,1996,1,414,260,218,1,2038,2026,2018,1,1886,1885,2045,1,2009,2045,2067,1,2067,2093,2036,1
0.013,1943,2010,2065,1,2009,2040,2064,1,3842,2149,1997,1,413,260,215,1,2037,2026,2015,1,1884,1885,2045,1,2009,2045,2060,1,2059,2093,2036,1
0.014,1943,2000,2062,1,2009,2038,2064,1,3842,2170,1998,1,413,261,217,1,2037,2027,2015,1,1884,1882,2045,1,2009,2047,2061,1,2059,2098,2037,1
0.015,1940,1996,2062,1,2007,2037,2063,1,3845,2194,1999,1,414,262,215,1,2038,2029,2016,1,1888,1860,2048,1,2011,2041,2052,1,2053,2111,2038,1
0.016,1947,2002,2059,1,2006,2038,2061,1,3805,2128,1998,1,411,256,217,1,2037,2026,2016,1,1925,1905,2046,1,2017,2055,2054,1,2048,2095,2037,1
0.017,1934,1993,2057,1,2002,2036,2061,1,3877,2196,1998,1,418,261,220,1,2039,2029,2016,1,1870,1852,2042,1,2006,2037,2065,1,2063,2108,2035,1
0.018,1941,1987,2060,1,2002,2036,2062,1,3848,2279,1999,1,416,259,221,1,2037,2026,2019,1,1893,1859,2048,1,2007,2036,2052,1,2053,2098,2035,1
0.019,1941,2001,2066,1,1999,2038,2064,1,3864,2196,1997,1,416,259,219,1,2037,2026,2020,1,1881,1859,2052,1,2003,2036,2051,1,2047,2098,2034,1
0.02,1941,2008,2066,1,1999,2041,2064,1,3864,2174,1996,1,416,262,217,1,2037,2026,2020,1,1881,1868,2052,1,2003,2036,2054,1,2047,2092,2038,1
0.021,1943,2007,2066,1,1993,2041,2064,1,3851,2184,1996,1,417,262,217,1,2040,2026,2020,1,1886,1861,2052,1,2012,2035,2054,1,2063,2104,2038,1
0.022,1944,2015,2062,1,1990,2042,2061,1,3827,2119,1994,1,414,254,217,1,2039,2023,2020,1,1909,1906,2050,1,2021,2051,2059,1,2060,2092,2041,1
0.023,1931,2005,2058,1,1987,2039,2059,1,3895,2150,1995,1,423,259,219,1,2042,2027,2019,1,1860,1886,2046,1,2013,2045,2065,1,2078,2104,2044,1
0.024,1938,1993,2058,1,1987,2037,2057,1,3853,2221,1996,1,418,269,218,1,2039,2033,2019,1,1892,1836,2047,1,2016,2027,2056,1,2066,2111,2043,1
0.025,1956,2002,2058,1,1988,2040,2057,1,3761,2154,1994,1,413,264,216,1,2037,2029,2017,1,1885,1882,2045,1,2012,2041,2061,1,2069,2095,2046,1
0.025,1944,2007,2058,1,1985,2038,2057,1,3839,2135,1994,1,413,257,216,1,2037,2027,2017,1,1885,1893,2045,1,2012,2045,2061,1,2069,2091,2046,1
0.026,1944,2007,2063,1,1984,2038,2059,1,3850,2135,1994,1,413,257,219,1,2036,2027,2020,1,1881,1893,2047,1,2006,2045,2060,1,2058,2091,2040,1
0.027,1944,2012,2064,1,1984,2040,2058,1,3850,2159,1993,1,413,258,216,1,2036,2025,2018,1,1881,1884,2046,1,2006,2038,2061,1,2058,2088,2041,1
0.028,1946,2008,2064,1,1984,2040,2058,1,3828,2183,1993,1,412,259,216,1,2036,2025,2018,1,1885,1864,2046,1,2009,2032,2061,1,2069,2100,2041,1
0.03,1948,2015,2060,1,1985,2041,2056,1,3801,2120,1993,1,409,252,217,1,2036,2021,2018,1,1915,1909,2045,1,2015,2049,2067,1,2062,2091,2043,1
0.031,1935,2004,2055,1,1985,2040,2051,1,3875,2184,1993,1,419,259,216,1,2039,2024,2016,1,1865,1861,2042,1,2009,2033,2074,1,2079,2103,2046,1
0.032,1938,1991,2054,1,1987,2039,2049,1,3854,2260,1995,1,415,270,216,1,2037,2029,2018,1,1882,1869,2045,1,2009,2033,2069,1,2068,2096,2049,1
0.033,1943,2001,2053,1,1990,2041,2047,1,3822,2184,1994,1,410,262,214,1,2036,2025,2016,1,1885,1869,2042,1,2011,2033,2070,1,2076,2096,2047,1
0.034,1943,2005,2056,1,1990,2038,2050,1,3822,2161,1997,1,410,258,217,1,2036,2026,2017,1,1885,1883,2042,1,2011,2039,2064,1,2076,2096,2043,1
0.035,1944,2004,2056,1,1995,2037,2050,1,3837,2170,1997,1,414,260,217,1,2038,2028,2017,1,1885,1876,2042,1,2004,2035,2064,1,2074,2102,2043,1
0.036,1949,2004,2064,1,1998,2037,2058,1,3823,2170,2003,1,413,260,220,1,2037,2028,2017,1,1902,1876,2040,1,2002,2035,2048,1,2062,2102,2039,1
0.037,1937,2005,2062,1,1997,2039,2056,1,3893,2182,2004,1,419,262,219,1,2039,2028,2017,1,1855,1867,2038,1,1999,2032,2056,1,2080,2110,2039,1
0.038,1942,1996,2064,1,1998,2038,2057,1,3858,2234,2007,1,415,265,219,1,2038,2031,2020,1,1885,1827,2044,1,2004,2021,2056,1,2070,2116,2044,1
0.039,1955,2004,2059,1,2002,2038,2054,1,3777,2160,2007,1,407,258,221,1,2039,2027,2020,1,1884,1881,2044,1,2007,2040,2059,1,2076,2103,2043,1
0.04,1940,1996,2054,1,2001,2039,2049,1,3852,2200,2005,1,417,265,217,1,2039,2030,2018,1,1884,1852,2043,1,2007,2028,2061,1,2076,2108,2044,1
0.04,1937,1996,2054,1,2003,2039,2049,1,3870,2200,2005,1,419,265,217,1,2038,2030,2018,1,1876,1852,2043,1,2002,2028,2061,1,2077,2108,2044,1
0.041,1937,2000,2056,1,2003,2039,2053,1,3870,2183,2006,1,419,260,219,1,2038,2028,2019,1,1876,1867,2045,1,2002,2033,2064,1,2077,2102,2044,1
0.042,1945,2001,2056,1,2003,2037,2053,1,3846,2195,2006,1,417,262,219,1,2038,2030,2019,1,1881,1859,2045,1,2003,2030,2064,1,2076,2110,2044,1
0.043,1952,2012,2062,1,2002,2039,2060,1,3819,2129,2008,1,411,257,220,1,2035,2027,2018,1,1911,1905,2044,1,2006,2045,2067,1,2064,2092,2041,1
0.044,1940,2012,2061,1,1998,2040,2059,1,3888,2163,2007,1,417,259,218,1,2037,2027,2016,1,1863,1881,2042,1,2002,2039,2073,1,2080,2106,2043,1
0.046,1947,2000,2064,1,1996,2038,2062,1,3843,2237,2010,1,412,264,219,1,2035,2029,2019,1,1903,1833,2049,1,2012,2040,2069,1,2071,2102,2044,1
0.047,1962,2009,2060,1,1993,2039,2059,1,3827,2165,2007,1,413,256,219,1,2036,2025,2018,1,1897,1883,2048,1,2016,2040,2073,1,2079,2102,2044,1
0.048,1947,2006,2059,1,1993,2041,2058,1,3827,2151,2005,1,413,261,216,1,2036,2026,2016,1,1897,1893,2048,1,2016,2043,2074,1,2079,2100,2046,1
0.049,1942,2006,2059,1,1987,2041,2058,1,3845,2160,2005,1,412,261,216,1,2036,2025,2016,1,1889,1884,2048,1,2014,2039,2074,1,2080,2110,2046,1
0.05,1943,2006,2057,1,1984,2041,2055,1,3832,2160,2001,1,410,261,216,1,2035,2025,2017,1,1902,1884,2047,1,2012,2039,2071,1,2067,2110,2042,1
0.051,1934,2002,2058,1,1981,2038,2057,1,3899,2190,2002,1,417,264,219,1,2037,2028,2017,1,1853,1863,2044,1,2000,2031,2071,1,2077,2114,2039,1
0.052,1945,1998,2064,1,1980,2036,2061,1,3843,2235,2004,1,412,271,219,1,2035,2032,2018,1,1901,1830,2048,1,2009,2019,2060,1,2065,2115,2036,1
0.053,1959,2012,2068,1,1981,2039,2065,1,3774,2163,2002,1,404,265,218,1,2033,2028,2016,1,1949,1881,2047,1,2011,2035,2065,1,2072,2097,2038,1
0.054,1946,2008,2062,1,1978,2036,2066,1,3851,2195,2003,1,416,266,223,1,2038,2030,2019,1,1895,1860,2048,1,2011,2032,2069,1,2072,2111,2042,1
0.054,1940,2008,2065,1,1975,2036,2066,1,3875,2195,2003,1,418,266,223,1,2038,2030,2019,1,1882,1860,2048,1,2014,2032,2069,1,2080,2111,2042,1
0.055,1940,2009,2063,1,1975,2039,2063,1,3875,2176,2000,1,418,264,220,1,2038,2027,2019,1,1882,1872,2048,1,2014,2038,2070,1,2080,2105,2045,1
0.056,1939,2007,2063,1,1975,2038,2063,1,3856,2184,2000,1,415,262,220,1,2039,2027,2019,1,1886,1867,2048,1,2020,2038,2070,1,2083,2116,2045,1
0.057,1944,2007,2060,1,1977,2038,2060,1,3829,2184,1999,1,414,262,223,1,2039,2027,2021,1,1911,1867,2048,1,2025,2038,2056,1,2072,2116,2040,1
0.058,1933,2002,2062,1,1976,2036,2064,1,3896,2219,1999,1,420,268,223,1,2041,2031,2019,1,1863,1845,2044,1,2015,2032,2063,1,2084,2122,2042,1
0.06,1943,1996,2066,1,1981,2034,2064,1,3853,2270,1999,1,418,273,221,1,2039,2035,2019,1,1897,1811,2047,1,2018,2019,2052,1,2070,2104,2040,1
0.06,1961,2008,2069,1,1987,2036,2068,1,3762,2189,1999,1,415,266,221,1,2037,2030,2018,1,1894,1867,2046,1,2014,2037,2058,1,2071,2104,2039,1
0.062,1950,2014,2068,1,1987,2037,2067,1,3840,2154,2000,1,415,256,223,1,2037,2025,2019,1,1894,1889,2048,1,2014,2046,2057,1,2071,2099,2038,1
0.063,1944,2009,2068,1,1991,2037,2067,1,3858,2158,2000,1,417,258,223,1,2037,2026,2019,1,1889,1888,2048,1,2016,2046,2057,1,2075,2110,2038,1
0.064,1943,2009,2060,1,1993,2037,2062,1,3847,2158,1999,1,417,258,222,1,2038,2026,2017,1,1899,1888,2046,1,2021,2046,2059,1,2068,2110,2042,1
0.065,1930,2006,2056,1,1993,2039,2058,1,3910,2165,1998,1,422,258,220,1,2040,2025,2017,1,1853,1881,2045,1,2013,2043,2065,1,2083,2116,2044,1
0.066,1937,2000,2054,1,1996,2039,2052,1,3858,2209,1998,1,416,261,220,1,2038,2027,2020,1,1893,1847,2048,1,2016,2031,2053,1,2071,2121,2041,1
0.067,1950,2007,2055,1,2000,2040,2055,1,3793,2142,1998,1,408,254,221,1,2035,2023,2019,1,1943,1893,2048,1,2026,2045,2060,1,2066,2101,2043,1
0.068,1938,2003,2057,1,2002,2040,2060,1,3866,2176,2000,1,416,261,217,1,2038,2027,2016,1,1889,1871,2046,1,2015,2036,2055,1,2077,2108,2039,1
0.068,1939,2003,2063,1,2008,2040,2062,1,3888,2176,2000,1,420,261,217,1,2039,2027,2016,1,1875,1871,2046,1,2008,2036,2055,1,2076,2108,2039,1
0.069,1939,2008,2064,1,2008,2039,2062,1,3888,2158,2002,1,420,257,220,1,2039,2027,2018,1,1875,1884,2047,1,2008,2041,2052,1,2076,2098,2036,1
0.07,1944,2005,2064,1,2013,2039,2062,1,3869,2168,2002,1,417,260,220,1,2039,2029,2018,1,1882,1879,2047,1,2009,2040,2052,1,2076,2106,2036,1
0.071,1946,2005,2060,1,2014,2039,2059,1,3846,2168,2004,1,414,260,222,1,2038,2029,2019,1,1900,1879,2045,1,2011,2040,2050,1,2065,2106,2037,1
0.072,1935,2002,2054,1,2016,2040,2054,1,3909,2179,2003,1,422,260,222,1,2040,2028,2019,1,1854,1871,2043,1,2007,2037,2058,1,2082,2113,2039,1
0.073,1941,1993,2053,1,2018,2039,2052,1,3870,2231,2005,1,418,263,223,1,2038,2031,2022,1,1883,1832,2047,1,2007,2025,2050,1,2068,2118,2039,1
0.075,1957,2000,2053,1,2020,2039,2051,1,3787,2159,2005,1,410,257,224,1,2035,2027,2022,1,1884,1883,2045,1,2008,2041,2051,1,2072,2101,2036,1
0.075,1945,1998,2059,1,2017,2041,2055,1,3859,2199,2002,1,416,263,219,1,2037,2029,2019,1,1884,1854,2045,1,2008,2029,2050,1,2072,2106,2037,1
0.077,1945,2004,2059,1,2015,2043,2055,1,3874,2187,2002,1,418,263,219,1,2037,2028,2019,1,1882,1863,2045,1,2004,2031,2050,1,2073,2108,2037,1
0.078,1948,2004,2066,1,2014,2043,2061,1,3863,2187,2003,1,416,263,217,1,2036,2028,2017,1,1891,1863,2048,1,2005,2031,2053,1,2061,2108,2039,1
0.078,1948,1998,2064,1,2014,2039,2061,1,3863,2206,2003,1,416,266,219,1,2036,2029,2017,1,1891,1874,2046,1,2005,2053,2056,1,2061,2102,2039,1
0.08,1950,1992,2065,1,2011,2038,2062,1,3832,2233,2004,1,414,270,218,1,2035,2032,2017,1,1915,1850,2049,1,2007,2040,2051,1,2053,2108,2041,1
0.081,1956,2001,2060,1,2008,2040,2058,1,3784,2160,2001,1,411,263,216,1,2034,2027,2015,1,1954,1898,2046,1,2017,2051,2056,1,2050,2095,2043,1
0.082,1941,1996,2054,1,2002,2038,2055,1,3860,2180,2000,1,420,263,219,1,2038,2028,2017,1,1897,1881,2046,1,2011,2044,2054,1,2068,2105,2041,1
0.083,1946,1997,2055,1,1999,2039,2054,1,3825,2215,2002,1,417,264,220,1,2038,2025,2017,1,1924,1878,2046,1,2014,2039,2054,1,2058,2103,2041,1
0.083,1946,1997,2058,1,1999,2039,2057,1,3825,2215,1998,1,417,264,218,1,2038,2025,2018,1,1924,1878,2050,1,2014,2039,2060,1,2058,2103,2047,1
0.084,1946,2003,2058,1,1991,2040,2057,1,3846,2205,1998,1,417,263,218,1,2038,2024,2018,1,1906,1875,2050,1,2009,2036,2060,1,2067,2107,2047,1
0.085,1950,2003,2064,1,1988,2040,2061,1,3835,2205,1997,1,418,263,217,1,2038,2024,2018,1,1915,1875,2050,1,2008,2036,2064,1,2056,2107,2045,1
0.086,1940,2008,2064,1,1982,2041,2061,1,3902,2185,1997,1,423,264,217,1,2040,2025,2017,1,1867,1885,2046,1,2005,2039,2066,1,2075,2111,2045,1
0.087,1940,1999,2067,1,1979,2038,2063,1,3890,2231,1999,1,423,271,215,1,2041,2031,2019,1,1876,1849,2050,1,2008,2026,2064,1,2066,2112,2048,1
0.088,1950,2008,2061,1,1978,2041,2060,1,3809,2161,1997,1,414,265,215,1,2039,2028,2016,1,1931,1896,2045,1,2010,2041,2071,1,2074,2097,2048,1
0.089,1937,1999,2053,1,1973,2038,2053,1,3876,2193,1999,1,420,267,220,1,2040,2030,2018,1,1882,1872,2043,1,2010,2034,2065,1,2074,2105,2044,1
0.09,1933,1999,2054,1,1970,2037,2053,1,3889,2177,1999,1,419,265,220,1,2040,2030,2018,1,1873,1883,2043,1,2006,2037,2065,1,2077,2110,2044,1
0.091,1935,1999,2058,1,1970,2037,2055,1,3878,2177,2000,1,417,265,219,1,2039,2030,2017,1,1880,1883,2042,1,2005,2037,2063,1,2066,2110,2043,1
0.092,1935,2002,2061,1,1970,2038,2055,1,3878,2194,1999,1,417,264,218,1,2039,2028,2017,1,1880,1881,2042,1,2005,2033,2063,1,2066,2098,2041,1
0.093,1940,2002,2066,1,1972,2037,2059,1,3867,2217,2002,1,417,263,218,1,2039,2028,2020,1,1890,1860,2049,1,2006,2026,2058,1,2058,2105,2041,1
0.095,1952,2014,2065,1,1978,2038,2060,1,3816,2146,2003,1,412,254,220,1,2036,2024,2020,1,1929,1906,2049,1,2008,2043,2062,1,2051,2092,2040,1
0.096,1941,2004,2062,1,1977,2037,2058,1,3884,2219,2004,1,420,264,219,1,2039,2030,2016,1,1882,1855,2043,1,2006,2027,2063,1,2069,2101,2043,1
0.097,1945,1987,2063,1,1981,2037,2058,1,3849,2222,2006,1,418,269,216,1,2038,2029,2017,1,1907,1871,2046,1,2008,2032,2063,1,2060,2095,2043,1
0.097,1945,1996,2058,1,1981,2037,2051,1,3849,2222,2005,1,418,269,213,1,2038,2029,2015,1,1907,1871,2045,1,2008,2032,2064,1,2060,2095,2045,1
0.098,1939,1996,2058,1,1986,2037,2051,1,3865,2205,2005,1,420,267,213,1,2039,2029,2015,1,1895,1878,2045,1,2007,2035,2064,1,2068,2105,2045,1
0.099,1941,1996,2056,1,1989,2037,2052,1,3853,2205,2008,1,417,267,218,1,2039,2029,2017,1,1904,1878,2044,1,2012,2035,2061,1,2063,2105,2039,1
0.1,1941,1998,2059,1,1989,2040,2054,1,3853,2229,2006,1,417,270,216,1,2039,2027,2015,1,1904,1880,2043,1,2012,2052,2065,1,2063,2091,2040,1
0.101,1950,1998,2064,1,1994,2040,2055,1,3818,2255,2007,1,414,269,215,1,2039,2028,2017,1,1931,1849,2048,1,2018,2037,2057,1,2057,2101,2040,1
0.102,1962,2010,2065,1,2001,2040,2058,1,3767,2175,2008,1,408,259,218,1,2036,2024,2018,1,1969,1895,2049,1,2020,2049,2062,1,2051,2087,2039,1
0.103,1950,2007,2061,1,2004,2040,2057,1,3848,2200,2008,1,418,265,218,1,2039,2028,2018,1,1909,1875,2046,1,2011,2040,2063,1,2065,2099,2040,1
0.104,1943,2007,2063,1,2008,2041,2057,1,3880,2182,2010,1,422,265,218,1,2040,2028,2018,1,1884,1885,2046,1,2008,2042,2063,1,2071,2107,2040,1
0.105,1941,2007,2056,1,2008,2041,2051,1,3875,2182,2008,1,423,265,216,1,2041,2028,2018,1,1886,1885,2045,1,2010,2042,2061,1,2062,2107,2041,1
0.106,1941,1998,2055,1,2008,2039,2052,1,3875,2191,2009,1,423,265,218,1,2041,2029,2018,1,1886,1887,2044,1,2010,2042,2062,1,2062,2100,2039,1
0.107,1941,1995,2057,1,2007,2038,2051,1,3867,2213,2011,1,423,266,218,1,2041,2031,2019,1,1891,1867,2046,1,2011,2035,2051,1,2054,2107,2037,1
0.108,1950,2004,2059,1,2006,2040,2056,1,3819,2145,2008,1,415,260,218,1,2039,2028,2017,1,1929,1909,2045,1,2020,2047,2060,1,2053,2089,2042,1
0.11,1941,2001,2060,1,2005,2040,2058,1,3886,2214,2006,1,422,264,218,1,2040,2030,2016,1,1879,1857,2042,1,2011,2031,2068,1,2069,2102,2042,1
0.111,1948,1993,2065,1,2002,2039,2062,1,3853,2215,2008,1,416,263,219,1,2037,2026,2019,1,1905,1870,2049,1,2016,2033,2062,1,2062,2096,2042,1
0.111,1948,2008,2065,1,2002,2041,2063,1,3853,2215,2005,1,416,263,217,1,2037,2026,2017,1,1905,1870,2050,1,2016,2033,2059,1,2062,2096,2042,1
0.112,1947,2010,2065,1,1997,2042,2063,1,3871,2199,2005,1,415,261,217,1,2036,2024,2017,1,1893,1876,2050,1,2015,2035,2059,1,2069,2105,2042,1
0.113,1947,2010,2060,1,1995,2042,2059,1,3860,2199,2003,1,415,261,218,1,2035,2024,2018,1,1898,1876,2049,1,2017,2035,2061,1,2061,2105,2044,1
0.114,1947,1998,2057,1,1995,2037,2057,1,3860,2215,2002,1,415,265,219,1,2035,2027,2016,1,1898,1882,2046,1,2017,2054,2062,1,2061,2101,2044,1
0.115,1947,1994,2057,1,1993,2037,2054,1,3849,2241,2002,1,415,270,217,1,2035,2030,2016,1,1904,1857,2046,1,2016,2041,2052,1,2053,2107,2042,1
0.116,1956,2004,2057,1,1991,2040,2055,1,3795,2167,1999,1,408,263,216,1,2033,2026,2015,1,1947,1901,2043,1,2029,2050,2057,1,2054,2092,2043,1
0.117,1946,2004,2057,1,1988,2038,2057,1,3868,2186,1997,1,415,263,218,1,2035,2027,2018,1,1892,1884,2046,1,2018,2044,2057,1,2069,2103,2042,1
0.118,1955,2007,2062,1,1988,2039,2060,1,3830,2220,1999,1,410,267,220,1,2034,2026,2018,1,1921,1881,2046,1,2020,2037,2057,1,2060,2096,2042,1
0.119,1953,2007,2066,1,1988,2039,2062,1,3843,2220,1996,1,414,267,216,1,2036,2026,2018,1,1910,1881,2048,1,2016,2037,2056,1,2053,2096,2043,1
0.12,1953,2008,2065,1,1988,2040,2062,1,3843,2205,1996,1,414,268,215,1,2036,2028,2018,1,1910,1886,2047,1,2016,2037,2059,1,2053,2093,2045,1
0.121,1953,2005,2065,1,1989,2040,2062,1,3823,2218,1996,1,414,267,215,1,2040,2028,2018,1,1907,1869,2047,1,2009,2033,2059,1,2075,2102,2045,1
0.122,1956,2013,2060,1,1992,2041,2058,1,3796,2147,1997,1,412,257,218,1,2039,2024,2019,1,1932,1912,2047,1,2015,2047,2060,1,2065,2091,2044,1
0.123,1942,2002,2058,1,1991,2040,2058,1,3871,2208,2000,1,418,266,219,1,2041,2030,2016,1,1883,1869,2042,1,2010,2032,2066,1,2078,2099,2045,1
0.124,1948,1992,2061,1,1995,2037,2058,1,3850,2281,2002,1,415,274,217,1,2039,2031,2017,1,1900,1882,2045,1,2011,2038,2054,1,2066,2097,2044,1
0.125,1955,2003,2062,1,2000,2039,2059,1,3817,2200,2000,1,412,267,217,1,2040,2031,2016,1,1901,1882,2043,1,2010,2038,2059,1,2065,2097,2043,1
0.126,1955,2009,2062,1,2000,2038,2059,1,3817,2173,2000,1,412,259,217,1,2040,2028,2016,1,1901,1891,2043,1,2010,2041,2059,1,2065,2091,2043,1
0.127,1954,2009,2067,1,2001,2038,2063,1,3828,2173,2003,1,411,259,220,1,2038,2028,2017,1,1903,1891,2046,1,2009,2041,2054,1,2057,2091,2038,1
0.128,1954,2008,2066,1,2001,2041,2062,1,3828,2196,2003,1,411,263,218,1,2038,2026,2016,1,1903,1888,2045,1,2009,2037,2056,1,2057,2088,2039,1
0.129,1953,2004,2066,1,2004,2042,2062,1,3831,2221,2005,1,410,264,217,1,2036,2026,2018,1,1906,1864,2051,1,2009,2029,2051,1,2052,2098,2041,1
0.13,1957,2011,2060,1,2006,2042,2058,1,3789,2149,2004,1,408,254,218,1,2036,2021,2018,1,1944,1908,2050,1,2017,2044,2056,1,2050,2088,2043,1
0.131,1943,2000,2053,1,2006,2040,2055,1,3864,2195,2004,1,414,260,220,1,2037,2026,2017,1,1891,1875,2044,1,2012,2035,2053,1,2069,2100,2042,1
0.132,1949,1985,2054,1,2009,2040,2053,1,3833,2211,2006,1,412,267,220,1,2035,2028,2018,1,1915,1881,2047,1,2013,2035,2053,1,2059,2094,2042,1
0.133,1946,1994,2058,1,2009,2040,2053,1,3849,2211,2004,1,416,267,216,1,2037,2028,2015,1,1904,1881,2047,1,2009,2035,2051,1,2051,2094,2041,1
0.134,1946,1999,2060,1,2009,2039,2056,1,3849,2191,2004,1,416,261,218,1,2037,2028,2016,1,1904,1885,2047,1,2009,2036,2049,1,2051,2090,2038,1
0.135,1953,2000,2060,1,2007,2038,2056,1,3834,2202,2004,1,411,261,218,1,2036,2029,2016,1,1902,1874,2047,1,2007,2033,2049,1,2060,2099,2038,1
0.136,1958,2010,2060,1,2006,2039,2058,1,3809,2135,2004,1,408,255,221,1,2035,2026,2018,1,1927,1916,2046,1,2010,2048,2053,1,2053,2086,2038,1
0.137,1947,2008,2057,1,2004,2041,2056,1,3881,2170,2002,1,415,258,219,1,2038,2027,2017,1,1878,1890,2043,1,2005,2039,2062,1,2070,2097,2041,1
0.138,1947,1997,2057,1,2001,2040,2054,1,3861,2246,2002,1,415,265,217,1,2039,2030,2020,1,1895,1842,2049,1,2008,2038,2056,1,2061,2094,2043,1
0.139,1962,2003,2053,1,1998,2041,2051,1,3834,2174,2000,1,414,258,217,1,2039,2026,2019,1,1896,1888,2046,1,2010,2038,2060,1,2067,2094,2044,1
0.14,1949,2003,2053,1,1998,2041,2051,1,3834,2158,2000,1,414,262,217,1,2039,2028,2019,1,1896,1899,2046,1,2010,2041,2060,1,2067,2092,2044,1
0.141,1947,2003,2057,1,1995,2041,2054,1,3843,2158,1999,1,414,262,216,1,2039,2028,2016,1,1896,1899,2044,1,2013,2041,2061,1,2062,2092,2044,1
0.142,1947,2004,2058,1,1995,2038,2055,1,3843,2179,1998,1,414,261,218,1,2039,2028,2017,1,1896,1895,2044,1,2013,2041,2061,1,2062,2094,2043,1
0.143,1951,2004,2063,1,1994,2037,2058,1,3846,2204,2000,1,413,265,219,1,2038,2030,2020,1,1898,1877,2048,1,2010,2034,2054,1,2053,2101,2040,1
0.144,1960,2016,2067,1,1995,2040,2061,1,3807,2141,2000,1,410,260,216,1,2036,2026,2017,1,1932,1917,2047,1,2012,2047,2058,1,2047,2086,2043,1
0.145,1950,2012,2062,1,1993,2039,2058,1,3878,2183,1999,1,418,260,216,1,2038,2027,2016,1,1884,1887,2044,1,2005,2039,2068,1,2063,2100,2045,1
0.146,1952,1999,2062,1,1991,2038,2057,1,3848,2275,2000,1,413,260,218,1,2036,2025,2019,1,1905,1888,2047,1,2009,2038,2064,1,2057,2098,2045,1
0.147,1946,2008,2055,1,1989,2040,2052,1,3863,2198,1999,1,415,260,219,1,2037,2025,2020,1,1895,1888,2047,1,2011,2038,2067,1,2055,2098,2049,1
0.148,1946,2007,2055,1,1989,2042,2050,1,3863,2184,1997,1,415,261,216,1,2037,2025,2018,1,1895,1890,2045,1,2011,2038,2067,1,2055,2095,2050,1
0.149,1948,2007,2055,1,1990,2042,2050,1,3848,2196,1997,1,415,263,216,1,2038,2026,2018,1,1894,1881,2045,1,2009,2035,2067,1,2064,2105,2050,1
0.15,1952,2017,2058,1,1991,2044,2052,1,3823,2133,1996,1,411,256,213,1,2036,2022,2017,1,1915,1922,2045,1,2012,2049,2068,1,2058,2093,2051,1
0.151,1942,2015,2059,1,1990,2041,2054,1,3892,2163,1999,1,418,257,217,1,2038,2024,2017,1,1871,1901,2043,1,2004,2042,2071,1,2072,2101,2047,1
0.152,1946,2005,2065,1,1992,2038,2058,1,3873,2234,2004,1,416,264,220,1,2037,2030,2019,1,1886,1856,2046,1,2005,2027,2061,1,2063,2091,2042,1
0.153,1964,2014,2065,1,1998,2039,2058,1,3847,2166,2004,1,416,259,221,1,2039,2027,2018,1,1893,1900,2044,1,2007,2042,2063,1,2067,2091,2041,1
0.154,1951,2015,2065,1,1998,2041,2058,1,3847,2150,2004,1,416,256,221,1,2039,2025,2018,1,1893,1907,2044,1,2007,2045,2063,1,2067,2087,2041,1
0.155,1948,2015,2060,1,1999,2041,2053,1,3856,2150,2007,1,419,256,222,1,2040,2025,2020,1,1891,1907,2046,1,2010,2045,2062,1,2060,2087,2041,1
0.156,1948,2008,2057,1,1999,2043,2050,1,3856,2172,2006,1,419,259,218,1,2040,2025,2019,1,1891,1899,2046,1,2010,2041,2065,1,2060,2088,2042,1
0.157,1951,2006,2057,1,2003,2043,2050,1,3830,2196,2006,1,416,261,218,1,2040,2027,2019,1,1895,1881,2046,1,2003,2035,2065,1,2075,2097,2042,1
0.158,1956,2014,2057,1,2004,2043,2050,1,3800,2133,2006,1,411,254,218,1,2038,2023,2019,1,1925,1920,2046,1,2010,2047,2065,1,2066,2083,2039,1
0.159,1945,2007,2058,1,2004,2041,2053,1,3874,2174,2007,1,418,260,220,1,2040,2027,2017,1,1880,1893,2041,1,2004,2037,2068,1,2077,2091,2036,1
0.16,1950,1997,2064,1,2005,2039,2056,1,3852,2258,2010,1,415,271,217,1,2038,2028,2017,1,1900,1894,2044,1,2007,2035,2056,1,2065,2083,2035,1
0.161,1957,2008,2065,1,2009,2042,2058,1,3820,2186,2010,1,413,264,216,1,2037,2028,2015,1,1902,1894,2042,1,2007,2035,2060,1,2064,2083,2035,1
0.162,1957,2007,2062,1,2009,2040,2056,1,3820,2168,2011,1,413,256,218,1,2037,2026,2016,1,1902,1898,2044,1,2007,2038,2059,1,2064,2085,2034,1
0.163,1953,2003,2062,1,2008,2039,2056,1,3834,2178,2011,1,413,258,218,1,2036,2027,2016,1,1900,1892,2044,1,2010,2038,2059,1,2071,2098,2034,1
0.164,1954,2003,2056,1,2006,2039,2054,1,3819,2178,2014,1,410,258,221,1,2035,2027,2017,1,1917,1892,2046,1,2015,2038,2052,1,2063,2098,2037,1
0.165,1942,2003,2056,1,2004,2040,2055,1,3890,2191,2013,1,420,259,219,1,2039,2027,2015,1,1875,1882,2044,1,2012,2035,2059,1,2078,2106,2040,1
0.166,1952,1999,2059,1,2003,2039,2056,1,3830,2245,2014,1,412,262,216,1,2036,2029,2016,1,1923,1843,2050,1,2019,2024,2055,1,2067,2113,2042,1
0.167,1966,2010,2059,1,2002,2040,2056,1,3755,2171,2011,1,403,254,218,1,2035,2024,2017,1,1911,1892,2050,1,2010,2039,2058,1,2067,2100,2041,1
0.168,1955,2016,2059,1,1998,2041,2056,1,3836,2147,2011,1,410,258,218,1,2035,2025,2017,1,1911,1910,2050,1,2010,2041,2058,1,2067,2088,2041,1
0.169,1953,2016,2066,1,1994,2041,2062,1,3852,2147,2010,1,413,258,216,1,2036,2025,2017,1,1904,1910,2051,1,2011,2041,2052,1,2059,2088,2041,1
0.17,1953,2013,2065,1,1994,2038,2062,1,3852,2159,2010,1,413,257,219,1,2036,2026,2019,1,1904,1904,2051,1,2011,2040,2054,1,2059,2090,2042,1
0.171,1955,2009,2065,1,1990,2037,2062,1,3838,2180,2010,1,415,260,219,1,2038,2029,2019,1,1905,1892,2051,1,2016,2038,2054,1,2068,2102,2042,1
0.172,1958,2016,2062,1,1989,2040,2061,1,3813,2122,2008,1,414,256,218,1,2037,2026,2018,1,1928,1931,2048,1,2019,2049,2057,1,2059,2092,2045,1
0.173,1945,2007,2056,1,1984,2037,2057,1,3884,2181,2007,1,420,259,220,1,2039,2028,2018,1,1882,1890,2045,1,2014,2039,2064,1,2075,2104,2047,1
0.174,1953,1999,2056,1,1985,2036,2057,1,3839,2253,2008,1,414,265,222,1,2037,2031,2021,1,1916,1846,2049,1,2017,2038,2055,1,2064,2097,2045,1
0.175,1970,2009,2056,1,1985,2038,2057,1,3825,2179,2005,1,413,257,222,1,2037,2026,2020,1,1907,1892,2047,1,2009,2038,2059,1,2063,2097,2045,1
0.176,1958,2016,2062,1,1985,2041,2060,1,3825,2163,2002,1,413,259,218,1,2037,2025,2018,1,1907,1898,2047,1,2009,2035,2057,1,2063,2087,2046,1
0.177,1957,2018,2062,1,1983,2042,2060,1,3844,2172,2002,1,412,260,218,1,2036,2025,2018,1,1904,1893,2047,1,2009,2033,2057,1,2067,2095,2046,1
0.178,1959,2018,2062,1,1985,2042,2059,1,3832,2172,1997,1,411,260,214,1,2035,2025,2017,1,1915,1893,2048,1,2012,2033,2059,1,2059,2095,2046,1
0.179,1947,2014,2058,1,1983,2040,2057,1,3899,2181,1998,1,419,260,217,1,2038,2026,2017,1,1873,1889,2046,1,2009,2035,2064,1,2075,2105,2047,1
0.18,1950,2004,2059,1,1986,2037,2057,1,3865,2231,1999,1,418,265,218,1,2037,2030,2019,1,1897,1856,2047,1,2016,2029,2056,1,2068,2113,2046,1
0.181,1960,2011,2058,1,1990,2039,2057,1,3788,2162,1999,1,410,259,219,1,2035,2027,2018,1,1945,1903,2045,1,2021,2044,2059,1,2075,2102,2048,1
0.182,1949,2007,2054,1,1991,2039,2056,1,3861,2198,1999,1,419,260,222,1,2038,2027,2020,1,1898,1879,2046,1,2021,2038,2060,1,2075,2110,2046,1
0.183,1948,2007,2057,1,1998,2039,2056,1,3879,2198,1999,1,422,260,222,1,2039,2027,2020,1,1890,1879,2046,1,2017,2038,2060,1,2077,2110,2046,1
0.184,1948,2012,2060,1,1998,2043,2056,1,3879,2184,1996,1,422,262,218,1,2039,2026,2018,1,1890,1885,2046,1,2017,2037,2058,1,2077,2097,2046,1
0.185,1953,2014,2060,1,2004,2044,2056,1,3857,2195,1996,1,416,262,218,1,2038,2026,2018,1,1895,1878,2046,1,2011,2034,2058,1,2073,2102,2046,1
0.186,1958,2023,2062,1,2008,2044,2057,1,3831,2132,1996,1,413,254,219,1,2037,2022,2019,1,1916,1917,2046,1,2013,2048,2058,1,2064,2087,2045,1
0.187,1948,2014,2061,1,2011,2044,2058,1,3898,2185,1999,1,422,263,220,1,2040,2028,2017,1,1873,1884,2041,1,2005,2037,2062,1,2074,2096,2045,1
0.188,1954,2003,2063,1,2015,2044,2058,1,3856,2248,2001,1,416,272,218,1,2038,2034,2018,1,1904,1846,2043,1,2009,2026,2054,1,2066,2104,2045,1
0.189,1967,2010,2060,1,2020,2045,2057,1,3766,2177,2002,1,414,266,218,1,2037,2030,2017,1,1901,1893,2042,1,2014,2041,2058,1,2072,2093,2046,1
0.19,1954,2008,2060,1,2021,2042,2058,1,3843,2152,2005,1,414,261,220,1,2037,2029,2018,1,1901,1910,2043,1,2014,2049,2055,1,2072,2092,2045,1
0.191,1952,2009,2060,1,2024,2041,2058,1,3860,2158,2005,1,414,261,220,1,2037,2029,2018,1,1899,1907,2043,1,2011,2049,2055,1,2074,2104,2045,1
0.192,1954,2009,2061,1,2025,2041,2060,1,3849,2158,2007,1,416,261,221,1,2038,2029,2019,1,1910,1907,2044,1,2010,2049,2054,1,2063,2104,2043,1
0.193,1944,2009,2061,1,2025,2042,2060,1,3912,2184,2008,1,422,261,221,1,2040,2028,2019,1,1866,1888,2044,1,2001,2040,2057,1,2073,2108,2042,1
0.194,1954,2006,2064,1,2026,2042,2062,1,3861,2224,2010,1,415,263,222,1,2037,2029,2021,1,1903,1861,2050,1,2003,2030,2049,1,2061,2112,2039,1
0.195,1963,2015,2062,1,2025,2043,2062,1,3798,2155,2009,1,408,255,222,1,2035,2024,2019,1,1952,1904,2047,1,2013,2044,2058,1,2057,2096,2040,1
0.196,1952,2012,2057,1,2024,2044,2060,1,3869,2185,2007,1,417,257,219,1,2037,2024,2018,1,1902,1886,2048,1,2008,2038,2061,1,2069,2106,2047,1
0.197,1945,2012,2055,1,2020,2044,2058,1,3893,2185,2008,1,421,257,219,1,2037,2024,2018,1,1885,1886,2048,1,2009,2038,2061,1,2076,2106,2047,1
0.198,1945,2005,2054,1,2020,2041,2057,1,3893,2166,2009,1,421,259,220,1,2037,2027,2018,1,1885,1901,2047,1,2009,2044,2059,1,2076,2099,2045,1
0.199,1947,2004,2054,1,2015,2041,2057,1,3875,2177,2009,1,421,263,220,1,2037,2028,2018,1,1891,1895,2047,1,2008,2040,2059,1,2073,2103,2045,1
0.2,1950,2004,2056,1,2010,2041,2058,1,3852,2177,2006,1,417,263,215,1,2036,2028,2016,1,1908,1895,2047,1,2009,2040,2061,1,2062,2103,2047,1
0.201,1943,2004,2058,1,2006,2040,2060,1,3913,2186,2007,1,422,262,218,1,2038,2028,2016,1,1866,1888,2045,1,2000,2036,2063,1,2072,2104,2043,1
0.202,1952,2001,2064,1,2004,2038,2063,1,3874,2237,2010,1,421,265,220,1,2038,2031,2018,1,1896,1854,2050,1,2002,2024,2053,1,2057,2107,2037,1
0.203,1964,2010,2064,1,2001,2039,2063,1,3793,2166,2009,1,411,259,222,1,2036,2028,2018,1,1900,1900,2048,1,2006,2039,2055,1,2064,2091,2036,1
0.204,1952,2007,2059,1,1995,2039,2058,1,3864,2203,2005,1,420,262,219,1,2039,2029,2019,1,1900,1875,2049,1,2006,2032,2062,1,2064,2100,2042,1
0.205,1947,2007,2059,1,1988,2039,2058,1,3880,2189,2005,1,423,260,219,1,2041,2028,2019,1,1896,1886,2049,1,2014,2037,2062,1,2075,2109,2042,1
0.206,1947,2007,2053,1,1985,2039,2053,1,3870,2189,2004,1,423,260,222,1,2041,2028,2021,1,1901,1886,2049,1,2015,2037,2065,1,2065,2109,2044,1
0.207,1947,2002,2053,1,1985,2040,2050,1,3870,2212,2001,1,423,267,219,1,2041,2029,2019,1,1901,1890,2047,1,2015,2036,2066,1,2065,2098,2044,1
0.208,1951,2000,2055,1,1982,2039,2048,1,3838,2238,2000,1,417,270,217,1,2039,2031,2020,1,1921,1866,2049,1,2017,2025,2061,1,2057,2100,2044,1
0.209,1961,2010,2056,1,1982,2041,2048,1,3790,2166,1998,1,409,262,217,1,2036,2026,2019,1,1956,1908,2046,1,2017,2038,2063,1,2048,2085,2040,1
0.21,1952,2008,2058,1,1981,2039,2052,1,3865,2187,2000,1,417,264,221,1,2038,2028,2018,1,1903,1894,2045,1,2005,2033,2059,1,2057,2090,2035,1
0.211,1958,2009,2064,1,1982,2039,2056,1,3831,2220,2003,1,413,262,220,1,2037,2024,2018,1,1930,1893,2045,1,2011,2035,2059,1,2052,2091,2035,1
0.212,1958,2009,2062,1,1982,2039,2055,1,3831,2220,2003,1,413,262,220,1,2037,2024,2019,1,1930,1893,2049,1,2011,2035,2064,1,2052,2091,2040,1
0.213,1954,2009,2062,1,1984,2039,2055,1,3850,2210,2003,1,418,260,220,1,2038,2023,2019,1,1916,1893,2049,1,2016,2035,2064,1,2065,2101,2040,1
0.214,1954,2009,2054,1,1986,2039,2049,1,3839,2210,2005,1,418,260,222,1,2037,2023,2020,1,1922,1893,2047,1,2018,2035,2065,1,2058,2101,2042,1
0.215,1943,2006,2053,1,1986,2039,2048,1,3905,2208,2006,1,425,263,221,1,2040,2025,2017,1,1880,1891,2043,1,2014,2034,2065,1,2076,2107,2040,1
0.216,1951,2000,2056,1,1988,2039,2048,1,3850,2250,2008,1,417,270,218,1,2037,2030,2017,1,1916,1859,2044,1,2018,2022,2057,1,2066,2107,2041,1
0.217,1965,2012,2057,1,1994,2042,2050,1,3782,2177,2005,1,410,263,216,1,2034,2025,2015,1,1957,1904,2044,1,2015,2036,2062,1,2070,2095,2044,1
0.218,1954,2009,2055,1,1994,2040,2052,1,3857,2207,2008,1,419,263,221,1,2038,2027,2019,1,1908,1882,2046,1,2015,2029,2059,1,2070,2101,2038,1
0.219,1953,2012,2060,1,1996,2040,2052,1,3879,2190,2008,1,419,261,221,1,2038,2027,2019,1,1896,1893,2046,1,2010,2033,2059,1,2071,2107,2038,1
0.22,1953,2012,2061,1,1997,2040,2056,1,3872,2190,2013,1,418,261,224,1,2038,2027,2021,1,1900,1893,2046,1,2013,2033,2057,1,2064,2107,2038,1
0.221,1953,2009,2057,1,1997,2041,2053,1,3872,2202,2012,1,418,260,224,1,2038,2026,2021,1,1900,1896,2046,1,2013,2035,2059,1,2064,2100,2039,1
0.222,1951,2003,2057,1,1998,2040,2053,1,3863,2224,2014,1,417,261,224,1,2038,2028,2023,1,1906,1877,2049,1,2019,2031,2051,1,2061,2108,2040,1
0.223,1959,2009,2053,1,2001,2040,2052,1,3814,2154,2013,1,411,255,224,1,2035,2025,2021,1,1939,1920,2047,1,2023,2044,2057,1,2055,2096,2042,1
0.224,1949,2005,2052,1,2002,2041,2052,1,3883,2199,2012,1,420,260,221,1,2038,2027,2018,1,1894,1888,2041,1,2017,2033,2055,1,2071,2102,2042,1
0.225,1953,1992,2055,1,2002,2038,2052,1,3849,2213,2013,1,417,266,219,1,2038,2029,2020,1,1918,1893,2046,1,2018,2030,2055,1,2061,2089,2042,1
0.226,1953,2002,2063,1,2002,2040,2059,1,3849,2213,2013,1,417,266,216,1,2038,2029,2017,1,1918,1893,2045,1,2018,2030,2048,1,2061,2089,2040,1
0.227,1956,2008,2063,1,2004,2041,2059,1,3867,2203,2013,1,418,267,216,1,2038,2029,2017,1,1910,1897,2045,1,2012,2032,2048,1,2064,2097,2040,1
0.228,1959,2008,2067,1,2005,2041,2066,1,3856,2203,2012,1,416,267,213,1,2036,2029,2015,1,1916,1897,2046,1,2015,2032,2050,1,2059,2097,2045,1
0.229,1959,2009,2064,1,2005,2043,2065,1,3856,2231,2011,1,416,268,213,1,2036,2027,2015,1,1916,1896,2046,1,2015,2049,2056,1,2059,2090,2050,1
0.23,1959,2005,2064,1,2003,2041,2064,1,3842,2258,2012,1,413,266,214,1,2035,2028,2017,1,1924,1870,2050,1,2020,2043,2052,1,2057,2107,2051,1
0.231,1966,2012,2059,1,2005,2041,2062,1,3785,2180,2010,1,408,259,217,1,2033,2025,2016,1,1962,1915,2047,1,2030,2054,2058,1,2055,2101,2054,1
0.232,1954,2009,2055,1,2003,2042,2059,1,3860,2204,2006,1,415,263,214,1,2035,2027,2015,1,1911,1895,2046,1,2023,2045,2059,1,2071,2109,2055,1
0.233,1949,2014,2056,1,2001,2043,2058,1,3888,2186,2006,1,420,261,214,1,2037,2025,2015,1,1893,1902,2046,1,2017,2044,2059,1,2075,2110,2055,1
0.234,1951,2014,2058,1,2000,2043,2057,1,3882,2186,2002,1,418,261,215,1,2036,2025,2017,1,1895,1902,2047,1,2014,2044,2056,1,2064,2110,2050,1
0.235,1951,2014,2062,1,2000,2040,2062,1,3882,2195,2004,1,418,264,217,1,2036,2028,2017,1,1895,1902,2047,1,2014,2040,2056,1,2064,2096,2049,1
0.236,1961,2011,2062,1,2001,2039,2062,1,3834,2218,2004,1,414,266,217,1,2038,2030,2017,1,1905,1885,2047,1,2010,2036,2056,1,2078,2105,2049,1
0.237,1967,2019,2062,1,2003,2041,2063,1,3797,2152,2003,1,409,260,218,1,2036,2027,2016,1,1936,1925,2045,1,2020,2048,2060,1,2069,2092,2050,1
0.238,1955,2010,2057,1,2003,2039,2060,1,3871,2218,2003,1,420,264,219,1,2040,2030,2016,1,1893,1881,2044,1,2015,2037,2067,1,2079,2104,2050,1
0.239,1956,1999,2057,1,2003,2039,2059,1,3844,2301,2005,1,416,262,220,1,2038,2026,2019,1,1913,1889,2047,1,2021,2039,2060,1,2071,2099,2050,1
0.24,1956,2008,2054,1,2003,2041,2055,1,3844,2218,2003,1,416,262,221,1,2038,2026,2022,1,1913,1889,2048,1,2021,2039,2057,1,2071,2099,2047,1
0.241,1952,2011,2054,1,2004,2043,2055,1,3867,2203,2003,1,420,261,221,1,2039,2025,2022,1,1903,1893,2048,1,2014,2038,2057,1,2070,2102,2047,1
0.242,1954,2011,2056,1,2005,2043,2054,1,3858,2203,2000,1,417,261,218,1,2038,2025,2021,1,1906,1893,2047,1,2011,2038,2059,1,2059,2102,2045,1
0.243,1954,2007,2060,1,2005,2042,2057,1,3858,2221,1999,1,417,268,216,1,2038,2028,2018,1,1906,1894,2044,1,2011,2036,2058,1,2059,2087,2042,1
0.244,1957,2008,2065,1,2005,2043,2060,1,3849,2247,2000,1,414,271,214,1,2037,2029,2018,1,1914,1872,2047,1,2010,2029,2053,1,2053,2095,2041,1
0.245,1967,2019,2064,1,2009,2045,2061,1,3798,2173,1999,1,408,261,214,1,2034,2023,2016,1,1952,1912,2046,1,2016,2043,2062,1,2049,2082,2040,1
0.246,1956,2014,2060,1,2009,2043,2061,1,3870,2193,2002,1,417,263,218,1,2038,2026,2015,1,1906,1900,2045,1,2012,2041,2059,1,2064,2094,2039,1
0.247,1959,2004,2061,1,2009,2042,2061,1,3834,2188,2005,1,412,257,217,1,2036,2024,2016,1,1930,1901,2045,1,2015,2044,2059,1,2059,2092,2039,1
0.248,1955,2010,2054,1,2010,2042,2054,1,3848,2188,2005,1,415,257,219,1,2037,2024,2018,1,1918,1901,2047,1,2012,2044,2059,1,2051,2092,2038,1
0.249,1955,2008,2054,1,2010,2043,2052,1,3848,2189,2004,1,415,255,217,1,2037,2022,2018,1,1918,1898,2047,1,2012,2041,2057,1,2051,2085,2035,1
0.25,1960,2007,2054,1,2013,2043,2052,1,3830,2207,2004,1,415,257,217,1,2037,2023,2018,1,1912,1883,2047,1,2004,2034,2057,1,2054,2092,2035,1
0.251,1966,2014,2056,1,2013,2043,2054,1,3803,2142,2005,1,414,251,219,1,2037,2020,2018,1,1939,1921,2045,1,2004,2046,2058,1,2046,2077,2030,1
0.252,1957,2010,2059,1,2012,2043,2058,1,3876,2204,2007,1,419,261,218,1,2038,2025,2015,1,1892,1882,2041,1,1999,2032,2062,1,2059,2086,2032,1
0.253,1960,2001,2065,1,2011,2043,2062,1,3856,2278,2009,1,417,272,216,1,2038,2031,2017,1,1911,1891,2049,1,2003,2036,2055,1,2052,2083,2034,1
0.254,1963,2012,2063,1,2011,2045,2061,1,3825,2201,2009,1,414,263,215,1,2038,2026,2016,1,1912,1891,2047,1,2006,2036,2059,1,2059,2083,2036,1
0.255,1963,2007,2063,1,2011,2042,2061,1,3825,2176,2009,1,414,259,215,1,2038,2027,2016,1,1912,1903,2047,1,2006,2042,2059,1,2059,2085,2036,1
0.256,1958,2007,2055,1,2007,2042,2057,1,3834,2176,2012,1,413,259,220,1,2038,2027,2019,1,1912,1903,2048,1,2008,2042,2058,1,2054,2085,2035,1
0.257,1958,2003,2053,1,2007,2042,2055,1,3834,2197,2011,1,413,259,219,1,2038,2026,2019,1,1912,1899,2047,1,2008,2039,2061,1,2054,2087,2036,1
0.258,1955,2001,2053,1,2003,2041,2053,1,3837,2221,2011,1,412,260,219,1,2038,2027,2021,1,1915,1878,2052,1,2010,2032,2055,1,2050,2095,2038,1
0.259,1963,2009,2052,1,2001,2041,2054,1,3795,2152,2008,1,406,253,220,1,2035,2024,2020,1,1949,1919,2049,1,2011,2044,2061,1,2044,2084,2038,1
0.26,1953,2007,2057,1,1997,2041,2060,1,3869,2200,2010,1,414,261,219,1,2038,2028,2016,1,1902,1889,2042,1,2006,2032,2061,1,2060,2090,2041,1
0.261,1960,1997,2064,1,1996,2039,2065,1,3839,2217,2011,1,410,266,216,1,2036,2027,2016,1,1926,1895,2049,1,2010,2033,2061,1,2053,2088,2041,1
0.262,1957,2009,2066,1,1993,2042,2067,1,3855,2217,2011,1,412,266,212,1,2036,2027,2014,1,1917,1895,2050,1,2014,2033,2063,1,2053,2088,2047,1
0.263,1957,2008,2063,1,1993,2040,2065,1,3855,2197,2012,1,412,262,214,1,2036,2027,2014,1,1917,1904,2049,1,2014,2039,2064,1,2053,2091,2048,1
0.264,1958,2003,2063,1,1990,2039,2065,1,3841,2209,2012,1,409,265,214,1,2035,2029,2014,1,1911,1895,2049,1,2016,2037,2064,1,2065,2100,2048,1
0.265,1962,2009,2059,1,1990,2041,2062,1,3815,2145,2010,1,407,260,214,1,2033,2026,2014,1,1930,1933,2047,1,2018,2047,2065,1,2058,2090,2051,1
0.266,1951,2007,2056,1,1988,2041,2058,1,3885,2178,2007,1,414,260,214,1,2035,2025,2014,1,1887,1909,2043,1,2012,2039,2069,1,2072,2098,2050,1
0.267,1959,2001,2057,1,1990,2039,2055,1,3840,2252,2006,1,412,266,214,1,2034,2028,2017,1,1919,1864,2047,1,2015,2036,2063,1,2061,2090,2048,1
0.268,1977,2012,2059,1,1990,2040,2057,1,3826,2180,2004,1,412,257,216,1,2035,2024,2017,1,1916,1906,2046,1,2011,2036,2067,1,2064,2090,2048,1
0.269,1966,2019,2059,1,1990,2042,2057,1,3826,2167,2004,1,412,262,216,1,2035,2026,2017,1,1916,1915,2046,1,2011,2037,2067,1,2064,2086,2048,1
0.27,1964,2019,2064,1,1990,2042,2060,1,3838,2167,2002,1,412,262,214,1,2035,2026,2016,1,1912,1915,2046,1,2016,2037,2064,1,2060,2086,2051,1
0.271,1964,2014,2063,1,1990,2039,2061,1,3838,2188,2004,1,412,264,215,1,2035,2029,2016,1,1912,1914,2044,1,2016,2041,2065,1,2060,2092,2053,1
0.272,1965,2008,2063,1,1995,2038,2061,1,3812,2214,2004,1,413,266,215,1,2038,2032,2016,1,1913,1896,2044,1,2015,2038,2065,1,2078,2104,2053,1
0.273,1966,2014,2059,1,1996,2040,2058,1,3782,2149,2005,1,411,260,217,1,2038,2029,2016,1,1943,1934,2043,1,2025,2049,2064,1,2070,2093,2052,1
0.274,1954,2006,2054,1,1996,2040,2055,1,3861,2217,2004,1,421,263,218,1,2041,2031,2016,1,1899,1887,2041,1,2018,2035,2070,1,2079,2102,2049,1
0.275,1957,1998,2054,1,1998,2040,2052,1,3837,2301,2005,1,418,260,220,1,2041,2027,2019,1,1919,1894,2044,1,2023,2035,2060,1,2070,2096,2049,1
0.276,1956,2009,2057,1,2000,2041,2052,1,3855,2218,2004,1,420,260,220,1,2041,2027,2021,1,1910,1894,2047,1,2020,2035,2054,1,2063,2096,2045,1
0.277,1956,2015,2062,1,2000,2042,2058,1,3855,2198,2007,1,420,263,219,1,2041,2028,2019,1,1910,1902,2046,1,2020,2035,2054,1,2063,2087,2044,1
0.278,1965,2015,2062,1,2008,2043,2058,1,3846,2208,2007,1,415,265,219,1,2037,2028,2019,1,1910,1895,2046,1,2020,2033,2054,1,2068,2096,2044,1
0.279,1966,2023,2061,1,2011,2045,2057,1,3823,2144,2007,1,414,257,216,1,2036,2023,2017,1,1928,1931,2045,1,2024,2045,2055,1,2062,2083,2045,1
0.28,1954,2013,2059,1,2011,2043,2060,1,3892,2196,2011,1,422,263,218,1,2039,2027,2015,1,1889,1900,2044,1,2018,2038,2061,1,2075,2096,2048,1
0.281,1958,2002,2060,1,2013,2041,2060,1,3850,2260,2015,1,419,271,217,1,2038,2032,2015,1,1919,1864,2044,1,2025,2030,2054,1,2068,2092,2049,1
0.282,1973,2010,2059,1,2016,2043,2060,1,3837,2188,2015,1,416,265,217,1,2038,2028,2014,1,1917,1907,2043,1,2022,2040,2057,1,2070,2092,2046,1
0.283,1961,2015,2059,1,2015,2043,2060,1,3837,2163,2015,1,416,258,217,1,2038,2025,2014,1,1917,1917,2043,1,2022,2043,2057,1,2070,2086,2046,1
0.284,1959,2015,2061,1,2015,2043,2060,1,3849,2163,2017,1,418,258,221,1,2039,2025,2017,1,1913,1917,2046,1,2016,2043,2049,1,2058,2086,2038,1
0.285,1959,2017,2064,1,2015,2045,2062,1,3849,2183,2017,1,418,262,218,1,2039,2025,2016,1,1913,1907,2046,1,2016,2036,2048,1,2058,2079,2037,1
0.286,1968,2015,2064,1,2016,2046,2062,1,3827,2207,2017,1,412,265,218,1,2037,2027,2016,1,1914,1890,2046,1,2004,2030,2048,1,2069,2089,2037,1
0.287,1972,2024,2062,1,2016,2047,2059,1,3798,2144,2014,1,409,258,216,1,2036,2023,2016,1,1940,1926,2046,1,2011,2042,2053,1,2059,2076,2037,1
0.288,1961,2013,2059,1,2014,2045,2059,1,3873,2209,2016,1,418,267,218,1,2039,2029,2015,1,1896,1888,2042,1,2006,2031,2058,1,2070,2087,2038,1
0.289,1963,2001,2060,1,2012,2043,2059,1,3851,2285,2017,1,415,276,216,1,2038,2029,2017,1,1913,1898,2046,1,2011,2036,2051,1,2061,2086,2038,1
0.29,1965,2008,2057,1,2008,2045,2056,1,3819,2207,2014,1,412,268,215,1,2038,2029,2016,1,1915,1898,2045,1,2017,2036,2055,1,2064,2086,2040,1
0.291,1965,2010,2055,1,2008,2042,2053,1,3819,2183,2013,1,412,259,218,1,2038,2026,2018,1,1915,1906,2047,1,2017,2041,2051,1,2064,2085,2037,1
0.292,1963,2010,2055,1,2003,2041,2053,1,3833,2192,2013,1,413,259,218,1,2037,2026,2018,1,1911,1898,2047,1,2013,2038,2051,1,2063,2093,2037,1
0.293,1966,2010,2058,1,2000,2041,2058,1,3815,2192,2011,1,410,259,220,1,2036,2026,2019,1,1932,1898,2049,1,2016,2038,2038,1,2054,2093,2030,1
0.294,1958,2010,2061,1,1997,2041,2061,1,3886,2208,2011,1,416,264,218,1,2037,2028,2016,1,1890,1890,2046,1,2009,2033,2047,1,2066,2096,2033,1
0.295,1965,2003,2066,1,1998,2039,2064,1,3847,2266,2011,1,413,271,215,1,2035,2033,2016,1,1920,1857,2052,1,2012,2025,2046,1,2055,2089,2036,1
0.296,1976,2013,2064,1,1999,2041,2063,1,3758,2192,2010,1,416,264,216,1,2037,2028,2015,1,1920,1902,2050,1,2019,2039,2050,1,2062,2089,2037,1
0.296,1963,2015,2064,1,1994,2041,2063,1,3837,2165,2010,1,416,255,216,1,2037,2023,2015,1,1920,1917,2050,1,2019,2048,2050,1,2062,2092,2037,1
0.298,1959,2015,2057,1,1991,2041,2058,1,3850,2165,2008,1,418,255,219,1,2038,2023,2018,1,1916,1917,2051,1,2019,2048,2061,1,2056,2092,2041,1
0.299,1959,2013,2058,1,1991,2043,2057,1,3850,2183,2006,1,418,260,216,1,2038,2024,2016,1,1916,1911,2049,1,2019,2043,2062,1,2056,2087,2042,1
0.3,1963,2012,2058,1,1991,2043,2057,1,3830,2205,2006,1,414,261,216,1,2037,2025,2016,1,1916,1894,2049,1,2015,2037,2062,1,2061,2095,2042,1
0.301,1969,2021,2059,1,1993,2044,2058,1,3802,2142,2003,1,410,252,215,1,2035,2021,2016,1,1940,1931,2049,1,2013,2049,2065,1,2051,2085,2043,1
0.302,1959,2015,2062,1,1991,2043,2059,1,3876,2207,2004,1,420,262,215,1,2039,2026,2013,1,1898,1891,2043,1,2008,2033,2068,1,2064,2089,2043,1
0.303,1962,2006,2067,1,1992,2041,2063,1,3854,2282,2004,1,417,272,214,1,2039,2031,2015,1,1917,1899,2049,1,2011,2036,2065,1,2057,2085,2045,1
0.304,1963,2015,2064,1,1994,2043,2061,1,3822,2205,2003,1,412,266,214,1,2039,2027,2015,1,1917,1899,2046,1,2013,2036,2067,1,2066,2085,2045,1
0.305,1963,2010,2061,1,1994,2040,2060,1,3822,2182,2005,1,412,261,218,1,2039,2027,2017,1,1917,1910,2046,1,2013,2043,2066,1,2066,2088,2045,1
0.306,1958,2006,2061,1,1998,2039,2060,1,3837,2190,2005,1,415,262,218,1,2040,2028,2017,1,1913,1904,2046,1,2014,2042,2066,1,2072,2097,2045,1
0.307,1960,2006,2052,1,2001,2039,2055,1,3824,2190,2007,1,413,262,221,1,2038,2028,2019,1,1925,1904,2046,1,2014,2042,2062,1,2063,2097,2047,1
0.308,1950,2007,2051,1,2001,2039,2053,1,3893,2198,2007,1,421,260,222,1,2041,2028,2020,1,1886,1897,2044,1,2012,2041,2065,1,2078,2104,2046,1
0.309,1961,2004,2054,1,2004,2039,2057,1,3835,2249,2009,1,413,263,224,1,2038,2030,2022,1,1927,1862,2048,1,2017,2027,2062,1,2068,2105,2047,1
0.31,1974,2015,2058,1,2009,2041,2060,1,3763,2178,2009,1,407,255,223,1,2037,2025,2021,1,1924,1906,2048,1,2014,2042,2064,1,2071,2094,2047,1
0.311,1964,2014,2061,1,2009,2042,2062,1,3842,2217,2009,1,416,261,218,1,2040,2027,2018,1,1924,1883,2049,1,2014,2033,2066,1,2071,2098,2051,1
0.311,1961,2014,2061,1,2012,2042,2062,1,3866,2217,2009,1,418,261,218,1,2040,2027,2018,1,1916,1883,2049,1,2017,2033,2066,1,2077,2098,2051,1
0.312,1961,2007,2043,1,2012,2040,2018,1,3866,2200,2007,1,418,263,219,1,2040,2028,2017,1,1916,1897,2043,1,2017,2019,2021,1,2077,2092,2047,1
0.313,1936,1991,2043,1,1997,2038,2018,1,3844,2212,2007,1,417,266,219,1,2038,2030,2017,1,1904,1884,2043,1,1934,1980,2021,1,2035,2082,2047,1
0.315,1926,1987,2016,1,1985,2039,1955,1,3814,2146,2001,1,412,260,218,1,2035,2026,2015,1,1919,1915,2033,1,1886,1948,1958,1,2001,2065,2041,1
0.316,1913,1981,2016,1,1987,2039,1958,1,3884,2203,2001,1,420,263,217,1,2038,2027,2014,1,1876,1878,2031,1,1881,1943,1970,1,2009,2071,2043,1
0.317,1925,1982,2018,1,1992,2040,1962,1,3862,2276,2002,1,417,270,218,1,2037,2030,2017,1,1896,1891,2036,1,1917,1985,1966,1,2018,2080,2036,1
0.318,1955,1998,2030,1,2005,2042,1992,1,3832,2199,2003,1,412,261,219,1,2036,2025,2017,1,1905,1891,2038,1,1966,1985,1998,1,2044,2080,2041,1
0.319,1952,2011,2045,1,2005,2041,2022,1,3832,2177,2008,1,412,261,221,1,2036,2027,2018,1,1905,1909,2042,1,1966,2020,2020,1,2044,2085,2044,1
0.32,1962,2012,2045,1,2011,2041,2022,1,3845,2186,2008,1,413,264,221,1,2037,2029,2018,1,1909,1907,2042,1,2000,2029,2020,1,2063,2097,2044,1
0.321,1963,2012,2054,1,2011,2041,2049,1,3830,2186,2009,1,414,264,221,1,2038,2029,2018,1,1925,1907,2043,1,2016,2029,2049,1,2063,2097,2050,1
0.322,1954,2011,2052,1,2011,2041,2055,1,3898,2196,2010,1,420,262,222,1,2039,2029,2018,1,1884,1902,2044,1,2013,2035,2063,1,2076,2109,2053,1
0.323,1960,2005,2052,1,2011,2041,2056,1,3840,2248,2012,1,414,265,224,1,2037,2031,2021,1,1925,1869,2047,1,2031,2031,2062,1,2073,2116,2053,1
0.324,1973,2012,2052,1,2013,2042,2059,1,3767,2177,2011,1,407,257,224,1,2034,2027,2021,1,1920,1913,2048,1,2034,2047,2070,1,2078,2104,2054,1
0.325,1961,2012,2060,1,2010,2043,2068,1,3845,2216,2008,1,416,263,218,1,2038,2029,2019,1,1920,1891,2048,1,2034,2042,2076,1,2078,2113,2056,1
0.325,1963,2012,2060,1,2009,2043,2068,1,3870,2216,2008,1,417,263,218,1,2037,2029,2019,1,1908,1891,2048,1,2029,2042,2076,1,2076,2113,2056,1
0.326,1963,2017,2066,1,2009,2043,2071,1,3870,2201,2009,1,417,267,217,1,2037,2029,2017,1,1908,1901,2048,1,2029,2042,2072,1,2076,2094,2052,1
0.327,1971,2017,2066,1,2010,2044,2071,1,3851,2212,2009,1,416,267,217,1,2036,2028,2017,1,1913,1895,2048,1,2028,2041,2072,1,2072,2101,2052,1
0.328,1971,2025,2064,1,2007,2046,2068,1,3825,2148,2008,1,412,258,218,1,2035,2022,2018,1,1933,1931,2049,1,2035,2053,2070,1,2066,2086,2049,1
0.329,1958,2011,2040,1,2004,2043,2016,1,3893,2177,2004,1,421,259,220,1,2038,2024,2017,1,1891,1910,2041,1,2017,2025,2029,1,2070,2087,2042,1
0.331,1944,1989,2018,1,1988,2037,1963,1,3847,2248,2001,1,415,265,221,1,2036,2029,2019,1,1913,1867,2037,1,1957,1958,1964,1,2029,2063,2015,1
0.332,1940,1984,1999,1,1970,2037,1920,1,3830,2178,1996,1,415,260,222,1,2037,2026,2018,1,1904,1901,2030,1,1909,1958,1927,1,2009,2063,2014,1
0.333,1928,1991,2013,1,1970,2038,1948,1,3830,2166,1998,1,415,262,219,1,2037,2026,2017,1,1904,1909,2033,1,1909,1972,1950,1,2009,2060,2020,1
0.334,1945,2000,2013,1,1983,2041,1948,1,3847,2178,1998,1,416,262,219,1,2036,2025,2017,1,1905,1905,2033,1,1956,1989,1950,1,2035,2074,2020,1
0.335,1956,2000,2042,1,1990,2041,2010,1,3834,2178,2003,1,416,262,217,1,2036,2025,2017,1,1921,1905,2042,1,1980,1989,2006,1,2037,2074,2028,1
0.336,1953,2006,2049,1,1992,2041,2031,1,3901,2190,2006,1,424,261,220,1,2038,2025,2017,1,1884,1900,2044,1,1986,2005,2030,1,2054,2085,2031,1
0.337,1959,2003,2056,1,1994,2039,2045,1,3865,2243,2010,1,418,264,221,1,2037,2029,2020,1,1909,1870,2049,1,2002,2011,2036,1,2052,2099,2033,1
0.338,1971,2010,2056,1,1998,2040,2053,1,3785,2174,2012,1,410,258,223,1,2036,2027,2020,1,1911,1914,2049,1,2021,2034,2047,1,2066,2086,2032,1
0.339,1961,2007,2052,1,1997,2041,2059,1,3858,2212,2013,1,416,261,223,1,2038,2028,2022,1,1911,1891,2051,1,2021,2033,2061,1,2066,2097,2038,1
0.339,1958,2007,2052,1,1999,2041,2059,1,3877,2212,2013,1,420,261,223,1,2039,2028,2022,1,1908,1891,2051,1,2030,2033,2061,1,2075,2097,2038,1
0.34,1958,2009,2057,1,1999,2041,2064,1,3877,2197,2015,1,420,264,222,1,2039,2030,2021,1,1908,1907,2050,1,2030,2046,2061,1,2075,2090,2035,1
0.341,1967,2011,2057,1,2005,2042,2064,1,3856,2209,2015,1,419,267,222,1,2039,2030,2021,1,1914,1900,2050,1,2030,2043,2061,1,2075,2095,2035,1
0.342,1972,2023,2061,1,2006,2045,2068,1,3830,2146,2014,1,417,259,221,1,2039,2025,2021,1,1936,1936,2051,1,2028,2057,2066,1,2063,2082,2034,1
0.343,1964,2020,2063,1,2005,2042,2070,1,3896,2176,2017,1,425,261,223,1,2042,2027,2019,1,1898,1919,2048,1,2023,2051,2069,1,2075,2090,2032,1
0.345,1970,2011,2070,1,2006,2039,2079,1,3852,2247,2020,1,418,267,222,1,2039,2031,2019,1,1929,1880,2052,1,2026,2039,2067,1,2066,2087,2037,1
0.346,1976,2019,2068,1,2006,2040,2077,1,3838,2179,2019,1,415,261,222,1,2037,2027,2018,1,1919,1920,2049,1,1993,2054,2069,1,2053,2087,2037,1
0.347,1959,2003,2037,1,2003,2041,2007,1,3838,2162,2010,1,415,258,220,1,2037,2023,2019,1,1919,1914,2043,1,1993,1992,2005,1,2053,2069,2034,1
0.348,1930,1992,2037,1,1986,2040,2007,1,3853,2170,2010,1,417,256,220,1,2037,2022,2019,1,1904,1903,2043,1,1914,1960,2005,1,2021,2065,2034,1
0.349,1931,1992,2003,1,1986,2040,1930,1,3839,2170,2002,1,417,256,222,1,2037,2022,2020,1,1914,1903,2034,1,1910,1960,1932,1,2007,2065,2015,1
0.35,1928,1995,2017,1,1990,2040,1962,1,3905,2183,2005,1,425,260,223,1,2040,2025,2018,1,1877,1901,2035,1,1925,1975,1965,1,2030,2078,2023,1
0.351,1942,1995,2032,1,1996,2039,1992,1,3869,2237,2008,1,422,267,221,1,2039,2030,2018,1,1906,1871,2041,1,1954,1983,1990,1,2034,2084,2031,1
0.352,1963,2010,2046,1,2004,2042,2020,1,3789,2171,2009,1,414,263,218,1,2037,2027,2016,1,1917,1913,2042,1,1995,2013,2016,1,2056,2077,2036,1
0.353,1959,2012,2059,1,2005,2043,2053,1,3861,2210,2011,1,421,267,218,1,2040,2029,2018,1,1917,1891,2046,1,1995,2016,2054,1,2056,2086,2048,1
0.353,1963,2012,2059,1,2009,2043,2053,1,3878,2210,2011,1,422,267,218,1,2041,2029,2018,1,1914,1891,2046,1,2018,2016,2054,1,2074,2086,2048,1
0.354,1963,2018,2063,1,2009,2046,2065,1,3878,2198,2011,1,422,268,216,1,2041,2028,2018,1,1914,1904,2049,1,2018,2039,2071,1,2074,2091,2055,1
0.355,1967,2017,2063,1,2012,2046,2065,1,3857,2209,2011,1,418,269,216,1,2040,2029,2018,1,1918,1901,2049,1,2037,2045,2071,1,2087,2104,2055,1
0.356,1970,2024,2064,1,2011,2047,2073,1,3831,2147,2011,1,415,262,215,1,2039,2025,2018,1,1938,1939,2050,1,2047,2061,2083,1,2083,2096,2061,1
0.357,1960,2020,2064,1,2009,2044,2076,1,3897,2177,2012,1,421,264,219,1,2041,2028,2017,1,1900,1924,2047,1,2043,2061,2087,1,2095,2107,2061,1
0.359,1971,2013,2070,1,2009,2043,2084,1,3830,2246,2013,1,413,273,219,1,2038,2033,2018,1,1944,1882,2049,1,2056,2043,2088,1,2088,2107,2063,1
0.359,1985,2023,2073,1,2011,2045,2088,1,3749,2180,2011,1,410,266,217,1,2037,2028,2016,1,1933,1921,2047,1,2044,2058,2091,1,2086,2097,2062,1
0.361,1975,2029,2074,1,2008,2044,2091,1,3831,2160,2011,1,410,257,219,1,2037,2025,2018,1,1933,1930,2050,1,2044,2064,2095,1,2086,2096,2062,1
0.362,1972,2027,2074,1,2007,2043,2091,1,3855,2168,2011,1,413,260,219,1,2037,2027,2018,1,1925,1929,2050,1,2044,2066,2095,1,2089,2106,2062,1
0.363,1964,2027,2066,1,2004,2043,2078,1,3846,2168,2010,1,413,260,220,1,2036,2027,2017,1,1925,1929,2047,1,2015,2066,2082,1,2065,2106,2057,1
0.364,1964,2001,2038,1,2004,2041,2014,1,3846,2217,2001,1,413,264,218,1,2036,2025,2016,1,1925,1909,2039,1,2015,2002,2025,1,2065,2083,2052,1
0.365,1949,1988,2013,1,1991,2040,1959,1,3811,2253,1995,1,412,267,218,1,2035,2027,2018,1,1938,1874,2035,1,1954,1967,1961,1,2028,2073,2025,1
0.366,1955,1990,2011,1,1991,2040,1958,1,3757,2179,1994,1,409,258,220,1,2034,2022,2017,1,1970,1908,2033,1,1951,1952,1967,1,2038,2064,2029,1
0.367,1947,1993,2022,1,1995,2039,2013,1,3840,2209,2001,1,418,262,223,1,2038,2026,2018,1,1922,1893,2038,1,1958,1972,2017,1,2038,2078,2036,1
0.367,1954,1993,2037,1,2006,2039,2013,1,3872,2209,2001,1,424,262,223,1,2040,2026,2018,1,1910,1893,2038,1,1989,1972,2017,1,2055,2078,2036,1
0.368,1954,2013,2050,1,2006,2043,2038,1,3872,2192,2004,1,424,259,222,1,2040,2023,2019,1,1910,1902,2044,1,1989,2015,2040,1,2055,2080,2040,1
0.369,1967,2016,2050,1,2016,2043,2038,1,3857,2201,2004,1,420,259,222,1,2040,2024,2019,1,1917,1900,2044,1,2019,2029,2040,1,2068,2095,2040,1
0.37,1971,2016,2060,1,2019,2043,2067,1,3832,2201,2011,1,416,259,225,1,2038,2024,2021,1,1938,1900,2048,1,2038,2029,2059,1,2070,2095,2045,1
0.371,1964,2013,2061,1,2021,2043,2077,1,3898,2215,2014,1,422,263,225,1,2040,2027,2019,1,1898,1896,2048,1,2032,2038,2074,1,2079,2104,2049,1
0.372,1972,2005,2064,1,2024,2043,2080,1,3831,2273,2016,1,416,273,223,1,2038,2033,2019,1,1943,1866,2049,1,2050,2036,2074,1,2077,2098,2052,1
0.373,1983,2012,2064,1,2026,2045,2082,1,3749,2199,2015,1,415,267,221,1,2040,2029,2017,1,1934,1909,2049,1,2054,2053,2082,1,2083,2098,2052,1
0.374,1970,2015,2065,1,2023,2044,2082,1,3831,2169,2015,1,415,258,220,1,2040,2026,2018,1,1934,1923,2051,1,2054,2062,2082,1,2083,2090,2048,1
0.376,1970,2017,2065,1,2023,2044,2082,1,3856,2175,2015,1,415,261,220,1,2039,2028,2018,1,1924,1922,2051,1,2047,2062,2082,1,2080,2096,2048,1
0.377,1973,2017,2075,1,2022,2044,2091,1,3847,2175,2017,1,413,261,217,1,2037,2028,2015,1,1932,1922,2051,1,2049,2062,2079,1,2072,2096,2043,1
0.378,1965,2020,2075,1,2021,2045,2093,1,3911,2182,2017,1,422,259,215,1,2040,2025,2014,1,1894,1917,2051,1,2036,2059,2086,1,2079,2102,2044,1
0.379,1969,2016,2075,1,2020,2043,2091,1,3881,2226,2018,1,419,260,215,1,2039,2027,2017,1,1915,1891,2057,1,2043,2054,2078,1,2072,2112,2044,1
0.38,1962,2020,2058,1,2007,2043,2059,1,3811,2160,2014,1,411,253,218,1,2035,2023,2017,1,1954,1929,2052,1,2001,2062,2054,1,2047,2095,2039,1
0.381,1945,2005,2035,1,2001,2042,2009,1,3878,2192,2008,1,418,258,218,1,2038,2025,2017,1,1910,1905,2038,1,1979,2019,1944,1,2047,2088,2011,1
0.381,1923,2005,2011,1,1982,2042,1954,1,3894,2192,2004,1,418,258,218,1,2038,2025,2017,1,1891,1905,2038,1,1913,2019,1944,1,2016,2088,2011,1
0.382,1923,1997,2019,1,1982,2039,1969,1,3894,2176,2006,1,418,257,219,1,2038,2025,2017,1,1891,1909,2038,1,1913,1992,1954,1,2016,2071,2014,1
0.383,1944,2001,2019,1,1989,2038,1969,1,3872,2188,2006,1,417,259,219,1,2037,2027,2017,1,1904,1907,2038,1,1960,2006,1954,1,2039,2082,2014,1
0.384,1958,2001,2046,1,1993,2038,2027,1,3846,2188,2010,1,413,259,221,1,2035,2027,2017,1,1924,1907,2043,1,1984,2006,2003,1,2040,2082,2026,1
0.385,1955,2007,2055,1,1993,2040,2047,1,3909,2223,2011,1,422,263,219,1,2039,2028,2016,1,1891,1889,2043,1,1993,2012,2032,1,2059,2089,2031,1
0.386,1965,2007,2064,1,1995,2041,2063,1,3868,2274,2012,1,418,269,218,1,2038,2031,2018,1,1919,1860,2050,1,2011,2014,2047,1,2057,2098,2038,1
0.387,1980,2019,2064,1,1999,2043,2069,1,3782,2197,2011,1,408,260,219,1,2038,2026,2019,1,1921,1906,2051,1,2036,2039,2062,1,2074,2089,2041,1
0.388,1969,2022,2065,1,1995,2044,2073,1,3855,2168,2012,1,415,262,218,1,2038,2026,2019,1,1921,1929,2050,1,2036,2057,2069,1,2074,2090,2045,1
0.389,1968,2021,2065,1,1996,2045,2073,1,3872,2172,2012,1,415,263,218,1,2037,2026,2019,1,1916,1928,2050,1,2044,2058,2069,1,2082,2097,2045,1
0.39,1971,2021,2066,1,1997,2045,2078,1,3862,2172,2011,1,415,263,217,1,2036,2026,2018,1,1922,1928,2050,1,2043,2058,2082,1,2072,2097,2051,1
0.392,1971,2018,2068,1,1997,2041,2082,1,3862,2211,2012,1,415,264,220,1,2036,2028,2018,1,1922,1926,2049,1,2043,2077,2084,1,2072,2098,2050,1
0.393,1974,2017,2074,1,2000,2041,2089,1,3852,2243,2014,1,415,269,219,1,2036,2031,2019,1,1928,1902,2051,1,2041,2061,2086,1,2066,2099,2055,1
0.394,1984,2029,2076,1,2005,2044,2089,1,3800,2175,2013,1,412,262,217,1,2035,2026,2017,1,1965,1936,2049,1,2049,2070,2086,1,2062,2087,2053,1
0.395,1975,2026,2074,1,2004,2043,2090,1,3872,2197,2014,1,417,264,220,1,2036,2028,2015,1,1922,1923,2048,1,2039,2063,2086,1,2073,2094,2055,1
0.396,1980,2013,2077,1,2009,2041,2092,1,3836,2225,2017,1,414,261,219,1,2034,2026,2016,1,1943,1922,2048,1,2044,2066,2086,1,2068,2099,2055,1
0.396,1980,2020,2072,1,2009,2041,2090,1,3836,2225,2020,1,414,261,221,1,2034,2026,2017,1,1943,1922,2048,1,2044,2066,2088,1,2068,2099,2058,1
0.397,1974,2018,2072,1,2014,2040,2090,1,3858,2213,2020,1,418,260,221,1,2035,2026,2017,1,1931,1924,2048,1,2045,2066,2088,1,2081,2107,2058,1
0.398,1974,2018,2066,1,2017,2040,2086,1,3849,2213,2021,1,416,260,224,1,2035,2026,2018,1,1934,1924,2047,1,2045,2066,2092,1,2075,2107,2060,1
0.399,1974,2016,2066,1,2017,2044,2083,1,3849,2244,2019,1,416,266,221,1,2035,2025,2016,1,1934,1919,2046,1,2045,2076,2091,1,2075,2092,2058,1
0.4,1974,2014,2070,1,2019,2044,2087,1,3857,2272,2019,1,417,266,218,1,2035,2026,2017,1,1928,1890,2050,1,2041,2057,2094,1,2070,2095,2063,1
0.401,1985,2024,2070,1,2024,2045,2086,1,3795,2194,2017,1,411,257,218,1,2033,2022,2018,1,1967,1927,2050,1,2042,2069,2092,1,2063,2087,2059,1
0.402,1975,2022,2069,1,2023,2046,2084,1,3867,2219,2017,1,417,263,217,1,2036,2025,2017,1,1924,1910,2048,1,2035,2058,2091,1,2075,2093,2059,1
0.403,1970,2024,2074,1,2024,2047,2089,1,3891,2201,2019,1,418,263,217,1,2038,2025,2017,1,1912,1919,2048,1,2038,2060,2091,1,2086,2101,2059,1
0.404,1968,2024,2069,1,2024,2047,2085,1,3885,2201,2017,1,417,263,215,1,2038,2025,2017,1,1913,1919,2049,1,2039,2060,2095,1,2081,2101,2065,1
0.405,1968,2015,2065,1,2024,2046,2082,1,3885,2209,2017,1,417,268,215,1,2038,2028,2016,1,1913,1922,2047,1,2039,2061,2092,1,2081,2098,2063,1
0.406,1969,2009,2065,1,2024,2045,2082,1,3838,2231,2017,1,411,271,215,1,2038,2031,2016,1,1919,1906,2047,1,2035,2054,2092,1,2095,2103,2063,1
0.407,1973,2016,2064,1,2024,2046,2082,1,3802,2165,2017,1,408,265,215,1,2037,2027,2015,1,1949,1941,2046,1,2038,2066,2091,1,2082,2092,2061,1
0.409,1965,2015,2062,1,2022,2045,2079,1,3875,2204,2015,1,415,265,216,1,2039,2028,2015,1,1909,1915,2044,1,2034,2058,2092,1,2092,2102,2058,1
0.41,1972,2009,2065,1,2023,2044,2084,1,3849,2289,2016,1,412,260,218,1,2037,2025,2018,1,1927,1917,2050,1,2034,2056,2090,1,2080,2094,2058,1
0.41,1972,2021,2071,1,2023,2044,2091,1,3849,2212,2017,1,412,260,219,1,2037,2025,2019,1,1927,1917,2055,1,2034,2056,2089,1,2080,2094,2057,1
0.411,1971,2024,2071,1,2018,2044,2091,1,3874,2199,2017,1,414,257,219,1,2036,2024,2019,1,1919,1923,2055,1,2038,2061,2089,1,2084,2106,2057,1
0.412,1971,2024,2069,1,2015,2044,2093,1,3867,2199,2019,1,413,257,222,1,2035,2024,2019,1,1924,1923,2056,1,2043,2061,2090,1,2079,2106,2057,1
0.413,1971,2021,2067,1,2015,2046,2092,1,3867,2218,2017,1,413,261,218,1,2035,2023,2017,1,1924,1921,2056,1,2043,2060,2095,1,2079,2101,2061,1
0.414,1971,2017,2065,1,2013,2043,2089,1,3860,2239,2017,1,412,261,217,1,2034,2025,2019,1,1928,1904,2058,1,2049,2057,2092,1,2076,2111,2062,1
0.415,1977,2021,2064,1,2010,2043,2089,1,3812,2169,2016,1,406,255,218,1,2032,2022,2017,1,1958,1941,2055,1,2053,2069,2092,1,2070,2099,2059,1
0.416,1968,2017,2062,1,2007,2042,2085,1,3881,2237,2014,1,416,261,219,1,2035,2026,2016,1,1916,1898,2052,1,2042,2056,2093,1,2078,2109,2056,1
0.417,1972,2010,2065,1,2005,2042,2088,1,3850,2235,2014,1,415,262,221,1,2036,2024,2019,1,1936,1906,2055,1,2045,2051,2089,1,2070,2094,2056,1
0.418,1973,2022,2069,1,2002,2044,2090,1,3864,2235,2012,1,415,262,221,1,2036,2024,2020,1,1927,1906,2057,1,2042,2051,2082,1,2066,2094,2050,1
0.419,1973,2025,2070,1,2002,2044,2091,1,3864,2209,2011,1,415,264,219,1,2036,2027,2020,1,1927,1917,2056,1,2042,2054,2085,1,2066,2090,2051,1
0.42,1974,2025,2070,1,1998,2045,2091,1,3850,2218,2011,1,413,264,219,1,2037,2027,2020,1,1926,1910,2056,1,2042,2053,2085,1,2074,2100,2051,1
0.421,1974,2030,2066,1,1997,2045,2088,1,3826,2152,2011,1,411,255,220,1,2037,2023,2020,1,1944,1944,2056,1,2048,2065,2086,1,2071,2088,2050,1
0.422,1963,2022,2060,1,1994,2043,2083,1,3894,2181,2012,1,418,259,221,1,2040,2026,2019,1,1907,1929,2053,1,2041,2062,2088,1,2082,2099,2050,1
0.424,1971,2012,2060,1,1997,2041,2081,1,3828,2250,2013,1,414,269,222,1,2039,2032,2021,1,1949,1892,2053,1,2051,2048,2082,1,2074,2089,2050,1
0.425,1984,2019,2062,1,2002,2044,2082,1,3745,2184,2012,1,412,264,219,1,2037,2028,2018,1,1935,1928,2050,1,2038,2059,2083,1,2073,2089,2048,1
0.425,1973,2023,2062,1,2000,2044,2082,1,3828,2166,2012,1,412,256,219,1,2037,2025,2018,1,1935,1933,2050,1,2038,2060,2083,1,2073,2083,2048,1
0.426,1973,2023,2066,1,2002,2044,2080,1,3843,2166,2009,1,414,256,217,1,2038,2025,2018,1,1930,1933,2050,1,2035,2060,2072,1,2064,2083,2042,1
0.427,1973,2026,2068,1,2002,2046,2081,1,3843,2187,2009,1,414,257,216,1,2038,2023,2017,1,1930,1924,2050,1,2035,2054,2075,1,2064,2080,2041,1
0.428,1977,2023,2068,1,2010,2045,2081,1,3827,2209,2009,1,414,257,216,1,2038,2024,2017,1,1930,1911,2050,1,2038,2052,2075,1,2070,2093,2041,1
0.429,1980,2027,2065,1,2015,2045,2079,1,3802,2147,2011,1,411,251,218,1,2036,2021,2017,1,1951,1945,2050,1,2044,2063,2075,1,2066,2082,2039,1
0.43,1970,2020,2062,1,2017,2045,2078,1,3876,2187,2014,1,419,258,218,1,2038,2024,2014,1,1911,1923,2046,1,2035,2056,2080,1,2076,2091,2040,1
0.431,1971,2011,2061,1,2020,2046,2074,1,3856,2268,2016,1,415,268,216,1,2036,2028,2015,1,1924,1920,2048,1,2038,2053,2071,1,2069,2086,2042,1
0.432,1984,2017,2060,1,2025,2047,2073,1,3830,2197,2015,1,414,260,215,1,2036,2023,2014,1,1927,1920,2047,1,2035,2053,2076,1,2069,2086,2042,1
0.433,1973,2017,2062,1,2025,2045,2073,1,3830,2180,2016,1,414,260,217,1,2036,2025,2015,1,1927,1926,2047,1,2035,2053,2070,1,2069,2078,2037,1
0.434,1974,2020,2062,1,2030,2047,2073,1,3846,2190,2016,1,415,262,217,1,2036,2025,2015,1,1923,1919,2047,1,2027,2048,2070,1,2066,2083,2037,1
0.435,1976,2020,2066,1,2030,2047,2076,1,3834,2190,2016,1,414,262,215,1,2036,2025,2015,1,1937,1919,2049,1,2031,2048,2067,1,2063,2083,2040,1
0.436,1967,2019,2065,1,2030,2046,2077,1,3901,2198,2019,1,420,262,219,1,2038,2027,2016,1,1900,1916,2048,1,2025,2048,2072,1,2074,2092,2042,1
0.437,1969,2011,2065,1,2030,2044,2076,1,3868,2247,2021,1,416,267,220,1,2037,2032,2019,1,1922,1888,2051,1,2031,2042,2064,1,2069,2101,2044,1
0.438,1976,2015,2062,1,2028,2044,2074,1,3793,2179,2021,1,409,262,221,1,2035,2029,2018,1,1964,1927,2049,1,2035,2053,2065,1,2076,2090,2044,1
0.439,1965,2010,2055,1,2025,2043,2068,1,3864,2213,2022,1,416,262,224,1,2038,2030,2020,1,1922,1907,2049,1,2035,2048,2065,1,2076,2100,2046,1
0.44,1963,2010,2054,1,2022,2043,2068,1,3883,2213,2022,1,420,262,224,1,2039,2030,2020,1,1914,1907,2049,1,2030,2048,2065,1,2076,2100,2046,1
0.441,1963,2012,2055,1,2022,2045,2068,1,3883,2198,2019,1,420,265,221,1,2039,2029,2019,1,1914,1915,2049,1,2030,2043,2065,1,2076,2090,2050,1
0.442,1969,2014,2055,1,2017,2044,2068,1,3862,2207,2019,1,415,263,221,1,2038,2028,2019,1,1919,1909,2049,1,2028,2040,2065,1,2076,2096,2050,1
0.443,1974,2023,2058,1,2014,2044,2070,1,3837,2144,2019,1,413,255,222,1,2037,2024,2019,1,1940,1945,2050,1,2031,2053,2064,1,2068,2087,2050,1
0.444,1967,2020,2060,1,2009,2044,2073,1,3902,2197,2019,1,419,263,220,1,2038,2028,2016,1,1905,1918,2047,1,2027,2044,2068,1,2080,2094,2053,1
0.445,1970,2013,2063,1,2006,2043,2074,1,3860,2259,2019,1,415,270,217,1,2037,2031,2016,1,1932,1881,2051,1,2032,2032,2066,1,2073,2100,2056,1
0.446,1979,2020,2058,1,2005,2045,2070,1,3774,2189,2015,1,408,261,216,1,2038,2025,2015,1,1929,1921,2051,1,2037,2044,2069,1,2080,2094,2059,1
0.447,1967,2015,2054,1,1999,2042,2066,1,3849,2165,2014,1,415,259,217,1,2038,2025,2016,1,1929,1938,2049,1,2037,2051,2067,1,2080,2095,2059,1
0.448,1964,2013,2054,1,1994,2041,2066,1,3866,2172,2014,1,419,261,217,1,2039,2026,2016,1,1924,1935,2049,1,2035,2050,2067,1,2081,2100,2059,1
0.449,1966,2013,2055,1,1993,2041,2065,1,3855,2172,2013,1,420,261,218,1,2039,2026,2015,1,1930,1935,2046,1,2035,2050,2066,1,2072,2100,2057,1
0.45,1966,2015,2056,1,1993,2042,2064,1,3855,2222,2009,1,420,263,216,1,2039,2024,2015,1,1930,1925,2046,1,2035,2059,2069,1,2072,2090,2057,1
0.451,1972,2015,2059,1,1992,2040,2066,1,3822,2254,2009,1,414,264,217,1,2037,2027,2018,1,1951,1901,2050,1,2034,2047,2067,1,2065,2095,2057,1
0.452,1980,2025,2060,1,1994,2040,2067,1,3771,2182,2009,1,408,257,220,1,2036,2024,2018,1,1984,1938,2049,1,2041,2057,2069,1,2062,2088,2055,1
0.453,1970,2023,2057,1,1991,2041,2065,1,3850,2207,2008,1,416,259,221,1,2039,2025,2020,1,1940,1921,2048,1,2035,2050,2071,1,2074,2097,2056,1
0.454,1963,2023,2057,1,1993,2041,2063,1,3885,2207,2009,1,422,259,221,1,2042,2025,2020,1,1919,1921,2048,1,2032,2050,2071,1,2081,2097,2056,1
0.455,1963,2018,2056,1,1993,2041,2062,1,3885,2186,2010,1,422,263,221,1,2042,2029,2019,1,1919,1933,2046,1,2032,2054,2071,1,2081,2095,2056,1
0.456,1963,2016,2056,1,1998,2042,2062,1,3874,2195,2010,1,420,265,221,1,2040,2029,2019,1,1918,1927,2046,1,2031,2051,2071,1,2082,2101,2056,1
0.457,1967,2016,2053,1,2001,2042,2056,1,3853,2195,2010,1,416,265,219,1,2038,2029,2019,1,1928,1927,2046,1,2029,2051,2073,1,2072,2101,2055,1
0.458,1959,2015,2054,1,2001,2041,2056,1,3914,2203,2011,1,422,265,220,1,2039,2030,2018,1,1894,1923,2045,1,2021,2049,2072,1,2079,2104,2052,1
0.459,1965,2011,2058,1,2005,2040,2061,1,3877,2251,2014,1,418,271,221,1,2039,2034,2020,1,1917,1895,2047,1,2025,2039,2068,1,2071,2104,2051,1
0.46,1978,2021,2062,1,2011,2043,2064,1,3800,2183,2015,1,411,265,220,1,2037,2030,2017,1,1961,1932,2045,1,2026,2050,2069,1,2073,2088,2047,1
0.461,1970,2020,2059,1,2012,2043,2066,1,3869,2216,2019,1,418,263,222,1,2039,2029,2018,1,1925,1913,2047,1,2026,2045,2069,1,2073,2097,2045,1
0.462,1968,2019,2062,1,2019,2043,2066,1,3885,2202,2019,1,421,261,222,1,2039,2028,2018,1,1920,1922,2047,1,2026,2049,2069,1,2076,2103,2045,1
0.463,1966,2019,2056,1,2021,2043,2063,1,3875,2202,2022,1,422,261,224,1,2039,2028,2018,1,1924,1922,2048,1,2028,2049,2069,1,2069,2103,2043,1
0.464,1966,2012,2052,1,2021,2046,2058,1,3875,2222,2020,1,422,265,221,1,2039,2026,2017,1,1924,1920,2048,1,2028,2047,2070,1,2069,2092,2043,1
0.465,1964,2010,2051,1,2023,2046,2057,1,3882,2245,2021,1,423,264,221,1,2039,2026,2020,1,1918,1901,2051,1,2025,2040,2066,1,2063,2098,2044,1
0.466,1972,2016,2051,1,2024,2045,2059,1,3826,2173,2021,1,418,255,222,1,2038,2022,2020,1,1953,1936,2051,1,2030,2052,2069,1,2059,2083,2042,1
0.467,1964,2017,2053,1,2022,2046,2061,1,3891,2194,2019,1,422,259,220,1,2039,2023,2017,1,1915,1923,2046,1,2026,2046,2068,1,2072,2092,2043,1
0.468,1970,2007,2059,1,2022,2043,2066,1,3854,2221,2020,1,419,265,218,1,2039,2027,2018,1,1940,1924,2051,1,2027,2046,2068,1,2063,2086,2043,1
0.469,1970,2016,2065,1,2022,2043,2074,1,3854,2221,2022,1,419,265,219,1,2039,2027,2018,1,1940,1924,2051,1,2027,2046,2063,1,2063,2086,2041,1
0.47,1970,2016,2065,1,2019,2043,2074,1,3869,2212,2022,1,421,265,219,1,2041,2029,2018,1,1935,1926,2051,1,2029,2048,2063,1,2070,2094,2041,1
0.471,1970,2016,2061,1,2018,2043,2071,1,3856,2212,2021,1,421,265,217,1,2040,2029,2017,1,1939,1926,2049,1,2030,2048,2062,1,2063,2094,2042,1
0.472,1962,2011,2055,1,2015,2042,2067,1,3917,2226,2021,1,425,263,219,1,2041,2030,2018,1,1901,1914,2049,1,2023,2045,2066,1,2075,2100,2043,1
0.473,1968,2006,2052,1,2014,2040,2064,1,3865,2257,2021,1,419,265,220,1,2038,2032,2021,1,1930,1893,2052,1,2028,2040,2061,1,2066,2106,2043,1
0.474,1977,2011,2052,1,2013,2040,2065,1,3801,2184,2020,1,413,259,222,1,2036,2028,2020,1,1969,1931,2049,1,2033,2052,2063,1,2059,2092,2041,1
0.475,1968,2013,2053,1,2008,2042,2065,1,3871,2211,2016,1,420,262,219,1,2039,2028,2019,1,1928,1914,2051,1,2027,2045,2065,1,2069,2097,2045,1
0.476,1969,2020,2057,1,2005,2043,2067,1,3894,2194,2015,1,425,258,219,1,2040,2025,2019,1,1915,1923,2051,1,2023,2048,2065,1,2070,2098,2045,1
0.477,1972,2020,2064,1,2003,2043,2073,1,3887,2194,2014,1,422,258,217,1,2038,2025,2019,1,1918,1923,2055,1,2024,2048,2065,1,2063,2098,2047,1
0.478,1972,2021,2065,1,2003,2042,2075,1,3887,2206,2014,1,422,263,217,1,2038,2026,2017,1,1918,1927,2053,1,2024,2050,2067,1,2063,2091,2048,1
0.479,1975,2019,2065,1,2000,2043,2075,1,3844,2227,2014,1,413,264,217,1,2036,2026,2017,1,1925,1912,2053,1,2019,2046,2067,1,2076,2098,2048,1
0.48,1978,2025,2061,1,2001,2045,2072,1,3810,2162,2012,1,409,256,215,1,2034,2021,2016,1,1949,1945,2052,1,2028,2055,2070,1,2069,2088,2051,1
0.481,1967,2016,2059,1,1998,2044,2070,1,3881,2225,2014,1,416,265,217,1,2037,2027,2014,1,1914,1910,2048,1,2025,2043,2072,1,2079,2093,2053,1
0.482,1969,2007,2060,1,1998,2041,2069,1,3857,2300,2014,1,414,275,215,1,2036,2029,2015,1,1930,1919,2049,1,2030,2045,2068,1,2071,2085,2054,1
0.483,1975,2016,2061,1,2001,2044,2070,1,3821,2223,2013,1,414,269,215,1,2038,2029,2013,1,1933,1919,2046,1,2026,2045,2069,1,2068,2085,2052,1
0.484,1975,2022,2061,1,2001,2044,2070,1,3821,2200,2013,1,414,262,215,1,2038,2026,2013,1,1933,1923,2046,1,2026,2045,2069,1,2068,2080,2052,1
0.485,1976,2022,2064,1,2003,2044,2071,1,3830,2200,2012,1,416,262,218,1,2039,2026,2016,1,1935,1923,2048,1,2026,2045,2064,1,2062,2080,2049,1
0.486,1976,2023,2064,1,2003,2046,2069,1,3830,2221,2011,1,416,265,216,1,2039,2026,2016,1,1935,1921,2047,1,2026,2041,2066,1,2062,2080,2050,1
0.487,1978,2019,2063,1,2007,2046,2066,1,3814,2245,2011,1,416,266,216,1,2039,2027,2019,1,1947,1903,2050,1,2028,2035,2060,1,2059,2087,2052,1
0.488,1979,2023,2057,1,2010,2046,2061,1,3778,2175,2009,1,413,257,217,1,2039,2023,2018,1,1971,1939,2048,1,2034,2047,2065,1,2057,2081,2052,1
0.489,1969,2014,2052,1,2012,2045,2059,1,3857,2220,2012,1,419,264,220,1,2040,2028,2017,1,1928,1914,2044,1,2028,2040,2061,1,2070,2089,2051,1
0.49,1971,2002,2052,1,2016,2046,2057,1,3830,2235,2013,1,418,267,218,1,2039,2028,2018,1,1944,1917,2043,1,2030,2040,2061,1,2064,2084,2051,1
0.491,1970,2010,2054,1,2020,2046,2054,1,3849,2235,2012,1,420,267,214,1,2039,2028,2018,1,1933,1917,2044,1,2027,2040,2059,1,2060,2084,2051,1
0.492,1970,2013,2058,1,2020,2044,2058,1,3849,2214,2014,1,420,266,216,1,2039,2030,2017,1,1933,1923,2043,1,2027,2040,2057,1,2060,2080,2047,1
0.493,1977,2015,2058,1,2028,2044,2058,1,3839,2224,2014,1,419,267,216,1,2039,2030,2017,1,1932,1916,2043,1,2022,2038,2057,1,2063,2086,2047,1
0.494,1980,2024,2062,1,2030,2046,2062,1,3815,2160,2016,1,416,261,215,1,2038,2026,2016,1,1952,1948,2043,1,2026,2048,2056,1,2059,2076,2046,1
0.495,1971,2022,2059,1,2031,2046,2062,1,3886,2191,2018,1,424,261,216,1,2040,2026,2016,1,1915,1929,2043,1,2022,2044,2063,1,2071,2088,2046,1
0.496,1975,2013,2059,1,2031,2045,2062,1,3843,2263,2021,1,418,264,218,1,2039,2029,2019,1,1943,1893,2048,1,2028,2047,2057,1,2066,2089,2047,1
0.497,1985,2017,2055,1,2029,2044,2060,1,3829,2192,2021,1,415,256,220,1,2038,2025,2018,1,1937,1930,2047,1,2028,2047,2060,1,2070,2089,2045,1
0.498,1974,2016,2055,1,2029,2046,2060,1,3829,2177,2021,1,415,259,220,1,2038,2025,2018,1,1937,1935,2047,1,2028,2047,2060,1,2070,2084,2045,1
0.499,1972,2016,2056,1,2027,2046,2060,1,3841,2177,2021,1,418,259,216,1,2039,2025,2017,1,1935,1935,2049,1,2026,2047,2060,1,2062,2084,2047,1
0.5,1972,2015,2059,1,2027,2043,2062,1,3841,2198,2021,1,418,261,218,1,2039,2027,2017,1,1935,1933,2048,1,2026,2046,2057,1,2062,2084,2045,1
0.501,1978,2015,2059,1,2022,2042,2062,1,3816,2225,2021,1,415,265,218,1,2040,2030,2017,1,1937,1917,2048,1,2019,2042,2057,1,2074,2091,2045,1
0.502,1983,2024,2063,1,2019,2044,2066,1,3786,2162,2021,1,411,260,219,1,2039,2027,2016,1,1965,1949,2046,1,2024,2051,2059,1,2066,2079,2045,1
0.503,1975,2022,2061,1,2016,2044,2066,1,3864,2204,2020,1,421,262,219,1,2042,2028,2016,1,1926,1924,2045,1,2020,2044,2066,1,2074,2090,2048,1
0.504,1977,2012,2061,1,2013,2043,2066,1,3840,2293,2021,1,419,260,220,1,2042,2027,2019,1,1944,1925,2051,1,2024,2044,2062,1,2066,2090,2048,1
0.505,1972,2018,2055,1,2008,2043,2063,1,3858,2216,2020,1,422,260,222,1,2042,2027,2021,1,1933,1925,2052,1,2025,2044,2063,1,2062,2090,2050,1
0.506,1972,2014,2053,1,2008,2043,2060,1,3858,2202,2017,1,422,263,219,1,2042,2028,2019,1,1933,1927,2050,1,2025,2044,2062,1,2062,2088,2051,1
0.507,1971,2015,2053,1,2000,2043,2060,1,3848,2213,2017,1,419,262,219,1,2041,2027,2019,1,1931,1919,2050,1,2026,2041,2062,1,2067,2096,2051,1
0.508,1974,2022,2054,1,1998,2044,2062,1,3826,2150,2015,1,418,253,220,1,2041,2022,2020,1,1948,1951,2053,1,2032,2051,2067,1,2063,2087,2055,1
0.509,1966,2018,2058,1,1993,2042,2065,1,3894,2204,2016,1,425,262,221,1,2044,2028,2018,1,1914,1923,2050,1,2028,2042,2067,1,2077,2095,2052,1
0.51,1973,2013,2064,1,1992,2039,2068,1,3852,2267,2017,1,418,269,220,1,2041,2032,2018,1,1941,1891,2052,1,2030,2031,2061,1,2068,2086,2049,1
0.511,1987,2023,2065,1,1995,2042,2069,1,3762,2197,2016,1,415,263,219,1,2038,2028,2016,1,1936,1929,2049,1,2030,2042,2062,1,2071,2086,2048,1
0.512,1976,2026,2065,1,1990,2043,2069,1,3840,2174,2016,1,415,255,219,1,2038,2023,2016,1,1936,1939,2049,1,2030,2048,2062,1,2071,2086,2048,1
0.513,1972,2026,2060,1,1989,2043,2064,1,3851,2174,2015,1,415,255,221,1,2038,2023,2019,1,1933,1939,2051,1,2033,2048,2065,1,2067,2086,2046,1
0.514,1972,2021,2057,1,1989,2044,2060,1,3851,2195,2013,1,415,259,218,1,2038,2023,2018,1,1933,1934,2051,1,2033,2048,2068,1,2067,2086,2048,1
0.515,1972,2019,2057,1,1990,2044,2060,1,3829,2218,2013,1,413,260,218,1,2037,2024,2018,1,1933,1920,2051,1,2026,2044,2068,1,2070,2094,2048,1
0.516,1976,2025,2056,1,1993,2045,2058,1,3802,2155,2012,1,409,252,218,1,2035,2020,2018,1,1954,1950,2050,1,2032,2054,2071,1,2066,2083,2046,1
0.517,1968,2021,2058,1,1993,2044,2059,1,3876,2195,2013,1,415,260,219,1,2037,2025,2016,1,1918,1930,2046,1,2026,2047,2071,1,2075,2089,2045,1
0.518,1974,2015,2063,1,1997,2044,2062,1,3855,2276,2014,1,412,270,217,1,2036,2029,2017,1,1932,1927,2048,1,2025,2043,2065,1,2065,2079,2044,1
0.519,1988,2024,2063,1,2006,2046,2060,1,3828,2205,2012,1,410,261,216,1,2037,2024,2016,1,1932,1927,2046,1,2021,2043,2067,1,2065,2079,2042,1
0.52,1980,2020,2062,1,2006,2043,2059,1,3828,2187,2015,1,410,262,219,1,2037,2028,2017,1,1932,1935,2046,1,2021,2047,2065,1,2065,2076,2040,1
0.521,1975,2018,2062,1,2012,2045,2059,1,3843,2198,2015,1,414,265,219,1,2039,2029,2017,1,1930,1929,2046,1,2022,2044,2065,1,2067,2084,2040,1
0.522,1973,2018,2057,1,2015,2045,2055,1,3830,2198,2016,1,414,265,216,1,2039,2029,2017,1,1942,1929,2047,1,2027,2044,2066,1,2064,2084,2047,1
0.523,1964,2012,2053,1,2017,2043,2052,1,3898,2226,2018,1,420,265,219,1,2041,2030,2017,1,1908,1914,2047,1,2023,2041,2067,1,2076,2093,2047,1
0.524,1967,2008,2054,1,2020,2043,2052,1,3863,2271,2021,1,416,267,221,1,2039,2032,2020,1,1928,1887,2049,1,2025,2033,2061,1,2068,2099,2046,1
0.525,1980,2015,2055,1,2025,2043,2054,1,3784,2196,2021,1,407,259,222,1,2035,2027,2020,1,1927,1926,2049,1,2019,2045,2062,1,2068,2088,2044,1
0.526,1973,2015,2061,1,2027,2046,2059,1,3857,2232,2020,1,414,264,217,1,2037,2028,2018,1,1927,1905,2050,1,2019,2036,2061,1,2068,2091,2045,1
0.527,1975,2015,2061,1,2030,2046,2059,1,3876,2232,2020,1,415,264,217,1,2036,2028,2018,1,1925,1905,2050,1,2017,2036,2061,1,2068,2091,2045,1
0.528,1975,2017,2062,1,2030,2045,2061,1,3876,2213,2023,1,415,263,219,1,2036,2027,2017,1,1925,1920,2049,1,2017,2041,2059,1,2068,2084,2042,1
0.529,1975,2014,2062,1,2030,2046,2061,1,3854,2224,2023,1,414,266,219,1,2036,2028,2017,1,1929,1914,2049,1,2022,2038,2059,1,2070,2088,2042,1
0.53,1975,2020,2060,1,2028,2047,2061,1,3827,2160,2023,1,411,260,217,1,2034,2024,2015,1,1948,1947,2047,1,2027,2047,2059,1,2064,2078,2043,1
0.531,1968,2013,2055,1,2028,2045,2059,1,3894,2211,2025,1,418,263,221,1,2036,2027,2016,1,1912,1921,2046,1,2023,2042,2063,1,2074,2089,2044,1
0.532,1973,2005,2056,1,2026,2043,2060,1,3850,2275,2027,1,413,270,222,1,2034,2032,2017,1,1938,1890,2047,1,2027,2033,2057,1,2066,2084,2045,1
0.533,1986,2012,2057,1,2026,2044,2063,1,3837,2203,2025,1,416,264,222,1,2036,2028,2016,1,1936,1927,2046,1,2029,2044,2060,1,2071,2084,2048,1
0.534,1977,2022,2060,1,2023,2046,2064,1,3837,2181,2022,1,416,258,220,1,2036,2024,2017,1,1936,1934,2048,1,2029,2045,2060,1,2071,2084,2049,1
0.535,1979,2024,2060,1,2016,2045,2064,1,3854,2187,2022,1,418,257,220,1,2037,2024,2017,1,1935,1931,2048,1,2026,2044,2060,1,2069,2090,2049,1
0.536,1979,2024,2062,1,2012,2045,2067,1,3842,2187,2021,1,416,257,224,1,2037,2024,2020,1,1943,1931,2049,1,2028,2044,2059,1,2063,2090,2047,1
0.537,1971,2022,2060,1,2009,2045,2065,1,3907,2215,2020,1,424,262,221,1,2040,2026,2018,1,1908,1916,2047,1,2022,2038,2063,1,2073,2094,2049,1
0.538,1977,2016,2059,1,2007,2045,2062,1,3854,2257,2018,1,417,267,220,1,2037,2029,2020,1,1937,1893,2049,1,2028,2031,2058,1,2065,2098,2050,1
0.539,1981,2021,2054,1,2005,2046,2059,1,3788,2187,2015,1,412,259,222,1,2036,2025,2020,1,1972,1930,2048,1,2037,2043,2062,1,2070,2090,2051,1
0.54,1970,2014,2052,1,2001,2044,2058,1,3862,2218,2013,1,421,265,220,1,2040,2029,2017,1,1933,1916,2045,1,2031,2039,2061,1,2070,2094,2052,1
0.541,1967,2014,2055,1,1997,2044,2058,1,3884,2218,2013,1,423,265,220,1,2042,2029,2017,1,1925,1916,2045,1,2033,2039,2061,1,2077,2094,2052,1
0.542,1967,2021,2056,1,1997,2044,2059,1,3884,2198,2011,1,423,260,221,1,2042,2026,2019,1,1925,1925,2046,1,2033,2043,2059,1,2077,2091,2051,1
0.543,1974,2021,2056,1,1997,2042,2059,1,3866,2207,2011,1,420,262,221,1,2040,2028,2019,1,1929,1923,2046,1,2028,2042,2059,1,2072,2094,2051,1
0.544,1978,2021,2064,1,1997,2042,2066,1,3843,2207,2012,1,416,262,221,1,2037,2028,2017,1,1944,1923,2046,1,2029,2042,2049,1,2065,2094,2049,1
0.545,1972,2022,2063,1,1998,2043,2065,1,3907,2218,2011,1,424,263,218,1,2040,2027,2015,1,1911,1917,2045,1,2023,2040,2057,1,2073,2098,2051,1
0.546,1980,2017,2063,1,2002,2043,2062,1,3844,2269,2011,1,418,266,216,1,2037,2029,2017,1,1946,1889,2048,1,2029,2033,2055,1,2066,2101,2052,1
0.547,1986,2022,2059,1,2004,2043,2061,1,3768,2195,2011,1,409,257,219,1,2035,2024,2018,1,1941,1928,2049,1,2037,2045,2060,1,2075,2092,2053,1
0.548,1974,2017,2054,1,2003,2044,2057,1,3846,2233,2011,1,418,263,217,1,2038,2027,2016,1,1941,1910,2047,1,2037,2040,2062,1,2075,2098,2054,1
0.549,1969,2018,2054,1,2005,2046,2057,1,3868,2220,2011,1,417,263,217,1,2037,2026,2016,1,1931,1916,2047,1,2034,2039,2062,1,2078,2098,2054,1
0.55,1971,2018,2057,1,2008,2046,2058,1,3860,2220,2010,1,419,263,215,1,2038,2026,2016,1,1935,1916,2048,1,2032,2039,2062,1,2069,2098,2055,1
0.551,1971,2017,2062,1,2008,2045,2062,1,3860,2239,2012,1,419,269,216,1,2038,2029,2015,1,1935,1923,2045,1,2032,2038,2060,1,2069,2085,2049,1
0.552,1978,2015,2067,1,2012,2045,2063,1,3830,2265,2014,1,415,273,214,1,2036,2032,2016,1,1952,1905,2048,1,2028,2031,2052,1,2060,2087,2047,1
0.553,1984,2023,2065,1,2014,2047,2062,1,3784,2193,2013,1,409,265,214,1,2034,2027,2014,1,1979,1938,2045,1,2031,2041,2057,1,2056,2075,2046,1
0.554,1974,2018,2060,1,2016,2045,2061,1,3861,2211,2016,1,420,265,219,1,2039,2029,2015,1,1938,1928,2045,1,2025,2041,2054,1,2065,2086,2045,1
0.555,1977,2013,2060,1,2017,2046,2060,1,3828,2242,2019,1,414,266,220,1,2037,2027,2018,1,1956,1928,2045,1,2030,2043,2054,1,2062,2089,2045,1
0.556,1977,2013,2054,1,2017,2046,2055,1,3828,2242,2020,1,414,266,219,1,2037,2027,2020,1,1956,1928,2048,1,2030,2043,2057,1,2062,2089,2048,1
0.557,1975,2014,2054,1,2022,2046,2055,1,3850,2230,2020,1,418,263,219,1,2037,2026,2020,1,1941,1927,2048,1,2025,2043,2057,1,2066,2096,2048,1
0.558,1977,2014,2054,1,2022,2046,2054,1,3839,2230,2021,1,415,263,220,1,2036,2026,2021,1,1947,1927,2049,1,2026,2043,2056,1,2061,2096,2044,1
0.559,1969,2015,2057,1,2022,2046,2057,1,3905,2228,2021,1,424,266,220,1,2040,2028,2018,1,1914,1925,2046,1,2022,2041,2055,1,2071,2097,2042,1
0.56,1977,2015,2063,1,2022,2047,2059,1,3851,2269,2021,1,417,271,217,1,2038,2030,2018,1,1945,1899,2049,1,2022,2031,2050,1,2062,2096,2041,1
0.561,1986,2025,2062,1,2023,2048,2058,1,3785,2197,2019,1,411,262,217,1,2036,2024,2016,1,1981,1932,2047,1,2025,2041,2057,1,2063,2082,2041,1
0.562,1978,2019,2059,1,2022,2046,2058,1,3859,2225,2023,1,416,265,220,1,2037,2027,2016,1,1939,1918,2046,1,2019,2038,2055,1,2063,2089,2041,1
0.563,1972,2017,2060,1,2022,2045,2058,1,3882,2208,2023,1,421,263,220,1,2037,2027,2016,1,1926,1928,2046,1,2019,2043,2055,1,2067,2096,2041,1
0.564,1971,2017,2057,1,2021,2045,2057,1,3874,2208,2025,1,422,263,221,1,2037,2027,2016,1,1930,1928,2046,1,2021,2043,2057,1,2060,2096,2043,1
0.565,1971,2016,2055,1,2021,2045,2055,1,3874,2223,2022,1,422,260,221,1,2037,2024,2016,1,1930,1928,2047,1,2021,2045,2059,1,2060,2092,2045,1
0.566,1974,2017,2057,1,2019,2044,2056,1,3865,2246,2023,1,419,261,221,1,2036,2025,2019,1,1934,1914,2050,1,2021,2043,2058,1,2054,2102,2044,1
0.567,1981,2026,2058,1,2019,2045,2057,1,3816,2177,2020,1,416,255,222,1,2035,2022,2018,1,1962,1948,2049,1,2024,2053,2061,1,2050,2093,2045,1
0.568,1973,2023,2061,1,2015,2045,2060,1,3884,2222,2020,1,421,263,222,1,2037,2026,2015,1,1925,1924,2044,1,2018,2043,2059,1,2061,2093,2044,1
0.569,1978,2013,2067,1,2014,2045,2063,1,3849,2238,2020,1,417,270,219,1,2037,2029,2016,1,1946,1927,2047,1,2021,2041,2059,1,2055,2083,2044,1
0.57,1978,2021,2067,1,2014,2045,2062,1,3849,2238,2017,1,417,270,216,1,2037,2029,2016,1,1946,1927,2047,1,2021,2041,2062,1,2055,2083,2048,1
0.571,1975,2019,2067,1,2010,2045,2062,1,3865,2227,2017,1,420,271,216,1,2040,2030,2016,1,1941,1930,2047,1,2027,2042,2062,1,2065,2088,2048,1
0.572,1973,2019,2061,1,2009,2045,2058,1,3854,2227,2015,1,419,271,215,1,2040,2030,2015,1,1945,1930,2045,1,2031,2042,2067,1,2062,2088,2054,1
0.573,1973,2012,2057,1,2009,2046,2054,1,3854,2254,2013,1,419,273,214,1,2040,2029,2014,1,1945,1928,2044,1,2031,2053,2068,1,2062,2080,2053,1
0.574,1973,2010,2055,1,2009,2045,2051,1,3841,2281,2012,1,420,271,214,1,2040,2030,2017,1,1950,1904,2046,1,2032,2041,2066,1,2057,2086,2053,1
0.575,1980,2017,2054,1,2009,2045,2049,1,3783,2203,2011,1,412,260,216,1,2037,2025,2018,1,1981,1938,2045,1,2032,2050,2068,1,2052,2078,2049,1
0.576,1973,2016,2056,1,2008,2046,2050,1,3859,2229,2011,1,418,265,214,1,2039,2028,2017,1,1938,1921,2046,1,2021,2039,2064,1,2059,2079,2045,1
0.577,1975,2022,2061,1,2008,2047,2053,1,3886,2212,2012,1,420,264,214,1,2038,2026,2017,1,1927,1929,2046,1,2018,2040,2064,1,2062,2082,2045,1
0.578,1975,2022,2066,1,2008,2047,2058,1,3880,2212,2014,1,421,264,211,1,2038,2026,2015,1,1931,1929,2047,1,2022,2040,2064,1,2058,2082,2047,1
0.579,1975,2020,2062,1,2008,2044,2057,1,3880,2220,2016,1,421,260,214,1,2038,2025,2016,1,1931,1933,2048,1,2022,2044,2066,1,2058,2084,2047,1
0.58,1974,2014,2062,1,2007,2043,2058,1,3871,2241,2019,1,418,265,217,1,2037,2028,2019,1,1935,1921,2049,1,2027,2041,2061,1,2058,2090,2048,1
0.581,1979,2019,2060,1,2008,2045,2058,1,3824,2174,2019,1,411,261,216,1,2034,2025,2016,1,1959,1953,2046,1,2030,2050,2062,1,2055,2081,2048,1
0.582,1971,2016,2057,1,2009,2045,2055,1,3890,2214,2019,1,419,261,216,1,2037,2025,2014,1,1924,1929,2043,1,2026,2043,2066,1,2067,2088,2048,1
0.583,1975,2009,2058,1,2009,2045,2054,1,3858,2304,2020,1,418,261,216,1,2037,2023,2017,1,1942,1927,2048,1,2025,2038,2062,1,2059,2078,2048,1
0.584,1975,2017,2059,1,2009,2046,2055,1,3858,2226,2020,1,418,261,219,1,2037,2023,2019,1,1942,1927,2049,1,2025,2038,2054,1,2059,2078,2041,1
0.585,1977,2022,2059,1,2010,2047,2055,1,3875,2215,2020,1,418,261,219,1,2037,2023,2019,1,1934,1929,2049,1,2018,2037,2054,1,2059,2082,2041,1
0.586,1978,2022,2062,1,2010,2047,2058,1,3865,2215,2020,1,420,261,218,1,2039,2023,2020,1,1941,1929,2051,1,2021,2037,2053,1,2054,2082,2041,1
0.587,1978,2017,2062,1,2010,2044,2061,1,3865,2235,2022,1,420,267,221,1,2039,2027,2020,1,1941,1934,2050,1,2021,2041,2056,1,2054,2083,2043,1
0.588,1977,2014,2063,1,2010,2045,2061,1,3854,2262,2024,1,419,272,220,1,2039,2030,2020,1,1947,1914,2050,1,2026,2036,2048,1,2054,2090,2043,1
0.589,1981,2020,2058,1,2010,2047,2058,1,3801,2190,2021,1,411,263,218,1,2036,2025,2017,1,1975,1947,2050,1,2034,2044,2056,1,2055,2084,2049,1
0.59,1972,2014,2054,1,2010,2045,2057,1,3873,2211,2022,1,417,265,220,1,2038,2028,2016,1,1936,1935,2048,1,2030,2043,2054,1,2068,2093,2049,1
0.591,1977,2015,2055,1,2012,2047,2055,1,3836,2244,2022,1,414,266,218,1,2037,2026,2017,1,1955,1930,2048,1,2032,2038,2054,1,2061,2087,2049,1
0.592,1978,2015,2056,1,2013,2047,2054,1,3848,2244,2019,1,415,266,218,1,2037,2026,2019,1,1946,1930,2050,1,2027,2038,2051,1,2054,2087,2048,1
0.593,1978,2020,2061,1,2013,2047,2058,1,3848,2231,2019,1,415,267,217,1,2037,2027,2018,1,1946,1930,2050,1,2027,2035,2053,1,2054,2079,2048,1
0.594,1985,2021,2061,1,2014,2047,2058,1,3829,2245,2019,1,410,266,217,1,2035,2026,2018,1,1942,1918,2050,1,2017,2033,2053,1,2058,2087,2048,1
0.595,1987,2028,2060,1,2013,2047,2058,1,3800,2175,2018,1,406,255,217,1,2033,2021,2018,1,1962,1949,2051,1,2026,2043,2056,1,2056,2080,2050,1
0.596,1978,2022,2058,1,2012,2045,2060,1,3874,2211,2020,1,413,261,218,1,2035,2025,2015,1,1925,1932,2048,1,2022,2041,2061,1,2067,2089,2051,1
0.597,1978,2011,2058,1,2011,2042,2059,1,3852,2292,2021,1,413,271,217,1,2036,2028,2016,1,1940,1936,2049,1,2031,2044,2056,1,2063,2087,2051,1
0.598,1978,2016,2057,1,2011,2044,2055,1,3852,2219,2019,1,413,266,214,1,2036,2028,2014,1,1940,1936,2046,1,2031,2044,2054,1,2063,2087,2051,1
0.599,1973,2017,2057,1,2010,2044,2055,1,3879,2206,2019,1,417,266,214,1,2037,2028,2014,1,1929,1940,2046,1,2028,2045,2054,1,2067,2090,2051,1
0.6,1975,2017,2059,1,2011,2044,2055,1,3872,2206,2017,1,419,266,217,1,2037,2028,2015,1,1931,1940,2045,1,2024,2045,2052,1,2057,2090,2046,1
0.601,1975,2020,2060,1,2011,2045,2055,1,3872,2224,2015,1,419,262,219,1,2037,2025,2017,1,1931,1932,2046,1,2024,2040,2053,1,2057,2082,2044,1
0.602,1979,2020,2064,1,2012,2044,2057,1,3864,2247,2016,1,418,262,221,1,2037,2026,2020,1,1935,1917,2049,1,2020,2037,2047,1,2049,2088,2040,1
0.603,1987,2027,2062,1,2013,2044,2057,1,3814,2178,2015,1,412,256,223,1,2035,2023,2019,1,1962,1948,2046,1,2026,2047,2052,1,2048,2077,2040,1
0.604,1979,2021,2061,1,2013,2044,2059,1,3883,2224,2016,1,420,264,224,1,2038,2028,2017,1,1926,1925,2044,1,2020,2040,2053,1,2058,2084,2044,1
0.605,1979,2009,2061,1,2012,2044,2056,1,3848,2239,2016,1,415,269,221,1,2037,2028,2018,1,1944,1928,2045,1,2026,2040,2053,1,2056,2082,2044,1
0.606,1975,2015,2053,1,2013,2046,2046,1,3861,2239,2012,1,418,269,218,1,2038,2028,2019,1,1935,1928,2045,1,2023,2040,2055,1,2052,2082,2047,1
0.607,1975,2011,2052,1,2013,2043,2045,1,3861,2219,2012,1,418,264,220,1,2038,2029,2020,1,1935,1934,2044,1,2023,2044,2052,1,2052,2081,2044,1
0.608,1977,2011,2052,1,2016,2042,2045,1,3842,2230,2012,1,416,264,220,1,2038,2030,2020,1,1934,1927,2044,1,2021,2042,2052,1,2057,2089,2044,1
0.609,1983,2018,2054,1,2019,2043,2046,1,3816,2166,2012,1,414,258,221,1,2037,2027,2020,1,1952,1956,2043,1,2021,2051,2050,1,2051,2077,2041,1
0.61,1977,2021,2057,1,2020,2045,2050,1,3886,2199,2013,1,420,259,218,1,2038,2026,2017,1,1918,1937,2043,1,2014,2042,2057,1,2059,2082,2044,1
0.611,1983,2017,2061,1,2021,2046,2051,1,3841,2274,2014,1,413,265,217,1,2035,2028,2019,1,1945,1904,2048,1,2017,2043,2052,1,2054,2081,2044,1
0.612,1994,2024,2060,1,2024,2047,2052,1,3826,2204,2014,1,414,257,216,1,2037,2023,2017,1,1943,1936,2048,1,2024,2043,2055,1,2062,2081,2045,1
0.613,1982,2019,2060,1,2024,2048,2052,1,3826,2189,2014,1,414,261,216,1,2037,2025,2017,1,1943,1943,2048,1,2024,2045,2055,1,2062,2077,2045,1
0.614,1979,2019,2055,1,2024,2048,2049,1,3838,2189,2016,1,413,261,213,1,2036,2025,2016,1,1939,1943,2048,1,2022,2045,2061,1,2057,2077,2049,1
0.615,1979,2012,2052,1,2024,2045,2047,1,3838,2209,2018,1,413,259,216,1,2036,2025,2016,1,1939,1940,2047,1,2022,2046,2059,1,2057,2080,2046,1
0.616,1969,1998,2050,1,2019,2042,2040,1,3842,2233,2021,1,416,263,216,1,2037,2028,2017,1,1936,1918,2047,1,1986,2001,2044,1,2027,2062,2041,1
0.617,1955,1997,2026,1,2003,2042,1975,1,3801,2169,2013,1,413,259,213,1,2035,2025,2014,1,1952,1941,2033,1,1894,1961,1973,1,1977,2046,2030,1
0.618,1942,1985,2016,1,2002,2040,1944,1,3874,2237,2010,1,418,263,214,1,2037,2028,2013,1,1911,1897,2024,1,1876,1925,1940,1,1974,2028,2005,1
0.619,1950,1984,2011,1,2001,2040,1926,1,3843,2243,2010,1,413,267,214,1,2035,2028,2016,1,1932,1912,2030,1,1879,1962,1904,1,1971,2042,2005,1
0.62,1956,1999,2034,1,2005,2043,1984,1,3857,2243,2015,1,417,267,214,1,2038,2028,2018,1,1932,1912,2041,1,1920,1962,1972,1,1992,2042,2025,1
0.621,1956,2008,2041,1,2005,2042,2008,1,3857,2222,2020,1,417,265,217,1,2038,2029,2018,1,1932,1928,2044,1,1920,2006,1999,1,1992,2063,2031,1
0.622,1970,2007,2041,1,2011,2041,2008,1,3841,2233,2020,1,413,265,217,1,2038,2031,2018,1,1937,1923,2044,1,1980,2019,1999,1,2036,2077,2031,1
0.623,1975,2014,2046,1,2011,2043,2026,1,3814,2167,2022,1,411,260,217,1,2038,2028,2017,1,1958,1957,2045,1,1999,2038,2023,1,2040,2074,2037,1
0.624,1971,2015,2050,1,2011,2045,2036,1,3885,2202,2022,1,419,263,216,1,2040,2028,2015,1,1925,1937,2042,1,2008,2037,2039,1,2059,2083,2040,1
0.625,1977,2010,2057,1,2012,2044,2048,1,3863,2282,2023,1,418,273,214,1,2039,2032,2017,1,1939,1936,2049,1,2017,2042,2051,1,2057,2081,2046,1
0.626,1989,2020,2060,1,2008,2046,2054,1,3863,2211,2020,1,415,265,213,1,2038,2027,2015,1,1942,1936,2047,1,2023,2042,2059,1,2064,2081,2047,1
0.627,1983,2026,2060,1,2008,2044,2054,1,3863,2193,2020,1,415,264,213,1,2038,2028,2015,1,1942,1946,2047,1,2023,2049,2059,1,2064,2080,2047,1
0.627,1985,2026,2069,1,2007,2044,2070,1,3863,2193,2021,1,416,264,214,1,2037,2028,2014,1,1943,1946,2050,1,2031,2049,2067,1,2063,2080,2051,1
0.629,1985,2024,2067,1,2007,2042,2071,1,3863,2213,2021,1,416,262,216,1,2037,2027,2015,1,1943,1945,2050,1,2031,2053,2073,1,2063,2087,2053,1
0.63,1983,2019,2067,1,2004,2041,2071,1,3860,2236,2021,1,414,265,216,1,2036,2030,2016,1,1944,1932,2051,1,2039,2052,2070,1,2064,2097,2054,1
0.631,1985,2024,2065,1,2004,2044,2071,1,3818,2172,2019,1,412,259,215,1,2035,2026,2014,1,1967,1962,2050,1,2048,2061,2075,1,2063,2090,2058,1
0.632,1977,2021,2054,1,2002,2043,2049,1,3886,2212,2017,1,418,259,217,1,2036,2026,2014,1,1932,1939,2045,1,2043,2057,2062,1,2075,2099,2054,1
0.633,1968,2002,2042,1,1993,2040,2020,1,3855,2299,2015,1,413,259,219,1,2034,2025,2018,1,1941,1922,2045,1,1989,1962,2023,1,2035,2057,2037,1
0.634,1952,2002,2000,1,1982,2040,1905,1,3867,2222,2000,1,414,259,219,1,2035,2025,2019,1,1927,1922,2031,1,1929,1962,1882,1,1989,2057,1992,1
0.635,1952,2000,2010,1,1982,2041,1921,1,3867,2209,2001,1,414,263,216,1,2035,2026,2018,1,1927,1917,2032,1,1929,1924,1899,1,1989,2034,2006,1
0.636,1964,2008,2010,1,1987,2043,1921,1,3848,2223,2001,1,411,265,216,1,2035,2027,2018,1,1931,1914,2032,1,1952,1954,1899,1,2015,2054,2006,1
0.637,1973,2020,2026,1,1995,2045,1964,1,3822,2161,2005,1,408,257,216,1,2035,2023,2019,1,1950,1947,2038,1,1984,1985,1951,1,2029,2056,2022,1
0.638,1969,2017,2036,1,2000,2043,1997,1,3891,2215,2012,1,419,262,220,1,2039,2028,2018,1,1920,1926,2040,1,1996,2004,1993,1,2050,2076,2031,1
0.639,1976,2012,2047,1,2005,2043,2021,1,3846,2283,2016,1,415,267,219,1,2038,2031,2018,1,1948,1898,2043,1,2022,2036,2017,1,2057,2085,2041,1
0.64,1989,2019,2050,1,2013,2044,2037,1,3830,2209,2017,1,414,258,219,1,2038,2027,2018,1,1946,1935,2045,1,2039,2036,2042,1,2071,2085,2046,1
0.641,1981,2026,2050,1,2013,2048,2037,1,3830,2192,2017,1,414,259,219,1,2038,2025,2018,1,1946,1941,2045,1,2039,2050,2042,1,2071,2082,2046,1
0.641,1983,2026,2058,1,2017,2048,2052,1,3841,2192,2016,1,414,259,215,1,2038,2025,2018,1,1943,1941,2047,1,2038,2050,2058,1,2065,2082,2047,1
0.642,1983,2023,2064,1,2017,2045,2063,1,3841,2212,2019,1,414,262,217,1,2038,2027,2018,1,1943,1940,2047,1,2038,2054,2064,1,2065,2080,2045,1
0.644,1991,2023,2064,1,2023,2044,2063,1,3815,2237,2019,1,413,263,217,1,2039,2029,2018,1,1947,1928,2047,1,2031,2053,2064,1,2074,2091,2045,1
0.645,1995,2028,2067,1,2025,2045,2069,1,3785,2173,2022,1,407,258,218,1,2036,2026,2016,1,1970,1958,2047,1,2044,2064,2069,1,2072,2080,2045,1
0.646,1986,2025,2063,1,2027,2047,2070,1,3863,2215,2022,1,416,260,217,1,2038,2026,2015,1,1934,1934,2048,1,2037,2058,2079,1,2078,2091,2050,1
0.647,1986,2016,2061,1,2028,2047,2068,1,3839,2304,2023,1,413,258,219,1,2037,2023,2018,1,1950,1936,2050,1,2045,2061,2073,1,2074,2093,2050,1
0.648,1981,2019,2056,1,2029,2047,2064,1,3857,2227,2023,1,417,258,219,1,2038,2023,2019,1,1941,1936,2051,1,2044,2061,2074,1,2069,2093,2052,1
0.649,1981,2013,2038,1,2029,2048,2016,1,3857,2211,2017,1,417,260,216,1,2038,2023,2017,1,1941,1933,2044,1,2044,2033,2017,1,2069,2080,2044,1
0.65,1957,2003,2038,1,2010,2047,2016,1,3845,2223,2017,1,414,264,216,1,2036,2025,2017,1,1928,1918,2044,1,1937,1982,2017,1,2011,2059,2044,1
0.651,1949,2001,2014,1,1999,2047,1950,1,3820,2160,2009,1,413,256,216,1,2035,2021,2018,1,1940,1938,2036,1,1879,1937,1936,1,1972,2043,2032,1
0.652,1943,2001,2023,1,2002,2045,1969,1,3889,2191,2013,1,420,258,218,1,2037,2023,2017,1,1905,1925,2036,1,1877,1942,1955,1,1977,2047,2034,1
0.653,1958,2003,2032,1,2008,2044,1982,1,3844,2265,2016,1,417,263,219,1,2037,2027,2019,1,1937,1898,2040,1,1916,1999,1957,1,1992,2067,2027,1
0.654,1980,2013,2041,1,2017,2044,2011,1,3829,2196,2019,1,413,256,222,1,2037,2024,2020,1,1942,1934,2044,1,1988,1999,1993,1,2037,2067,2034,1
0.654,1976,2019,2041,1,2017,2046,2011,1,3829,2185,2019,1,413,260,222,1,2037,2026,2020,1,1942,1946,2044,1,1988,2035,1993,1,2037,2077,2034,1
0.655,1977,2019,2052,1,2017,2046,2045,1,3840,2185,2021,1,413,260,218,1,2037,2026,2019,1,1942,1946,2049,1,2007,2035,2050,1,2045,2077,2050,1
0.656,1977,2018,2055,1,2017,2043,2054,1,3840,2208,2022,1,413,259,220,1,2037,2027,2020,1,1942,1947,2050,1,2007,2054,2062,1,2045,2087,2049,1
0.657,1979,2017,2062,1,2017,2043,2067,1,3845,2234,2026,1,414,265,221,1,2037,2031,2022,1,1945,1934,2053,1,2021,2052,2075,1,2050,2093,2055,1
0.659,1987,2027,2065,1,2017,2046,2072,1,3807,2172,2023,1,408,261,218,1,2035,2027,2019,1,1968,1965,2051,1,2035,2065,2082,1,2054,2086,2055,1
0.66,1981,2023,2067,1,2014,2044,2075,1,3878,2237,2023,1,415,264,220,1,2037,2030,2018,1,1934,1930,2050,1,2035,2053,2088,1,2070,2091,2053,1
0.661,1988,2017,2073,1,2016,2041,2082,1,3853,2313,2026,1,412,262,221,1,2035,2028,2020,1,1949,1940,2054,1,2039,2061,2088,1,2065,2090,2054,1
0.662,1984,2025,2075,1,2012,2042,2087,1,3869,2234,2025,1,413,262,218,1,2035,2028,2017,1,1941,1940,2053,1,2040,2061,2093,1,2066,2090,2056,1
0.663,1984,2026,2070,1,2012,2046,2080,1,3869,2211,2022,1,413,259,216,1,2035,2025,2016,1,1941,1942,2052,1,2040,2062,2092,1,2066,2087,2055,1
0.664,1982,2020,2070,1,2009,2044,2080,1,3859,2217,2022,1,413,261,216,1,2036,2026,2016,1,1942,1938,2052,1,2048,2061,2092,1,2078,2093,2055,1
0.665,1982,2020,2064,1,2009,2044,2075,1,3839,2217,2020,1,410,261,216,1,2034,2026,2015,1,1950,1938,2049,1,2036,2061,2091,1,2063,2093,2056,1
0.666,1970,2011,2039,1,2006,2044,2009,1,3904,2226,2012,1,420,262,215,1,2037,2026,2013,1,1917,1925,2037,1,2018,2019,2021,1,2064,2076,2043,1
0.667,1956,1997,2017,1,1991,2041,1952,1,3863,2277,2006,1,416,265,215,1,2036,2028,2016,1,1931,1889,2034,1,1940,1971,1947,1,2010,2052,2010,1
0.668,1958,1997,2000,1,1978,2041,1905,1,3775,2202,2000,1,405,256,218,1,2035,2023,2017,1,1926,1916,2027,1,1890,1929,1892,1,1986,2039,2006,1
0.668,1953,2009,2000,1,1982,2042,1905,1,3850,2179,2000,1,414,260,218,1,2035,2025,2017,1,1926,1934,2027,1,1890,1962,1892,1,1986,2042,2006,1
0.669,1962,2009,2033,1,1990,2042,1978,1,3860,2179,2008,1,414,260,216,1,2035,2025,2017,1,1927,1934,2037,1,1932,1962,1967,1,2006,2042,2024,1
0.67,1962,2019,2042,1,1990,2043,2009,1,3860,2194,2013,1,414,256,219,1,2035,2024,2019,1,1927,1939,2043,1,1932,2013,2008,1,2006,2066,2032,1
0.671,1977,2019,2042,1,2004,2043,2009,1,3838,2217,2013,1,412,257,219,1,2036,2026,2019,1,1937,1931,2043,1,1997,2028,2008,1,2049,2083,2032,1
0.672,1983,2025,2048,1,2010,2044,2033,1,3809,2157,2017,1,412,251,220,1,2036,2023,2019,1,1959,1962,2046,1,2020,2053,2039,1,2054,2080,2038,1
0.674,1976,2022,2053,1,2011,2045,2047,1,3881,2199,2020,1,418,259,218,1,2038,2026,2016,1,1929,1944,2043,1,2029,2054,2058,1,2073,2091,2041,1
0.675,1981,2016,2062,1,2014,2045,2063,1,3858,2283,2022,1,415,270,215,1,2037,2031,2017,1,1944,1942,2048,1,2041,2060,2073,1,2073,2087,2051,1
0.676,1992,2027,2065,1,2023,2048,2071,1,3824,2214,2021,1,416,263,214,1,2038,2026,2015,1,1949,1942,2048,1,2045,2060,2083,1,2076,2087,2051,1
0.677,1992,2034,2072,1,2023,2047,2082,1,3824,2200,2025,1,416,259,216,1,2038,2025,2015,1,1949,1947,2051,1,2045,2067,2090,1,2076,2087,2051,1
0.678,1996,2032,2072,1,2028,2046,2082,1,3839,2210,2025,1,416,260,216,1,2036,2027,2015,1,1950,1944,2051,1,2052,2068,2090,1,2083,2098,2051,1
0.679,1997,2032,2075,1,2030,2046,2090,1,3826,2210,2029,1,413,260,218,1,2034,2027,2015,1,1960,1944,2051,1,2058,2068,2099,1,2080,2098,2058,1
0.68,1987,2030,2070,1,2028,2046,2087,1,3895,2219,2029,1,419,259,219,1,2036,2026,2015,1,1929,1940,2051,1,2055,2070,2102,1,2092,2108,2058,1
0.681,1991,2021,2071,1,2029,2044,2090,1,3840,2267,2032,1,416,264,220,1,2035,2029,2017,1,1960,1916,2054,1,2068,2062,2102,1,2088,2110,2063,1
0.682,1989,2025,2069,1,2023,2044,2089,1,3771,2197,2032,1,407,259,221,1,2032,2026,2017,1,1947,1950,2053,1,2011,2074,2101,1,2058,2100,2061,1
0.683,1975,2014,2045,1,2020,2043,1968,1,3849,2230,2018,1,413,260,222,1,2034,2026,2018,1,1947,1926,2039,1,2011,2029,1957,1,2058,2085,2022,1
0.683,1949,2014,2023,1,2002,2043,1968,1,3873,2230,2018,1,420,260,222,1,2037,2026,2018,1,1928,1926,2039,1,1911,2029,1957,1,2003,2085,2022,1
0.684,1949,1999,2020,1,2002,2042,1950,1,3873,2213,2015,1,420,264,220,1,2037,2027,2017,1,1928,1920,2035,1,1911,1937,1925,1,2003,2047,2025,1
0.685,1962,2006,2020,1,2003,2043,1950,1,3852,2226,2015,1,418,267,220,1,2036,2029,2017,1,1933,1919,2035,1,1927,1961,1925,1,2011,2060,2025,1
0.686,1975,2017,2036,1,2010,2046,1988,1,3825,2164,2017,1,415,261,218,1,2035,2025,2017,1,1954,1949,2040,1,1969,1987,1967,1,2028,2057,2035,1
0.687,1972,2020,2044,1,2011,2046,2019,1,3893,2197,2020,1,421,261,219,1,2038,2026,2017,1,1924,1938,2044,1,1986,2011,2011,1,2048,2077,2045,1
0.688,1980,2016,2053,1,2015,2046,2042,1,3847,2271,2023,1,418,267,221,1,2038,2029,2020,1,1952,1908,2049,1,2021,2046,2035,1,2059,2089,2051,1
0.69,1993,2022,2055,1,2017,2046,2057,1,3831,2202,2023,1,413,258,221,1,2037,2025,2020,1,1948,1943,2051,1,2050,2046,2060,1,2078,2089,2056,1
0.69,1986,2023,2062,1,2017,2047,2070,1,3831,2189,2023,1,413,262,219,1,2037,2027,2018,1,1948,1951,2051,1,2050,2063,2072,1,2078,2088,2056,1
0.692,1987,2027,2062,1,2016,2048,2070,1,3849,2198,2023,1,416,261,219,1,2038,2026,2018,1,1947,1946,2051,1,2062,2066,2072,1,2086,2097,2056,1
0.693,1991,2027,2069,1,2016,2048,2085,1,3839,2198,2020,1,415,261,219,1,2038,2026,2019,1,1957,1946,2054,1,2068,2066,2087,1,2083,2097,2057,1
0.694,1985,2031,2075,1,2014,2048,2094,1,3905,2208,2022,1,424,264,217,1,2041,2027,2016,1,1927,1944,2053,1,2055,2067,2095,1,2085,2099,2058,1
0.695,1993,2029,2080,1,2016,2047,2097,1,3854,2252,2022,1,420,264,214,1,2039,2027,2016,1,1956,1922,2055,1,2066,2063,2092,1,2082,2107,2060,1
0.696,2000,2033,2076,1,2019,2047,2097,1,3791,2185,2022,1,412,255,217,1,2035,2022,2016,1,1985,1953,2054,1,2081,2076,2097,1,2082,2095,2058,1
0.697,1989,2028,2070,1,2016,2047,2093,1,3864,2218,2021,1,419,261,214,1,2038,2025,2014,1,1949,1939,2052,1,2070,2072,2101,1,2088,2103,2063,1
0.697,1983,2028,2070,1,2015,2047,2091,1,3891,2218,2021,1,418,261,214,1,2036,2025,2014,1,1934,1939,2052,1,2066,2072,2101,1,2091,2103,2063,1
0.698,1983,2024,2070,1,2015,2046,2090,1,3891,2198,2021,1,418,263,215,1,2036,2026,2014,1,1934,1950,2050,1,2066,2075,2096,1,2091,2094,2058,1
0.699,1986,2027,2070,1,2018,2048,2090,1,3877,2206,2021,1,420,264,215,1,2038,2025,2014,1,1941,1947,2050,1,2063,2073,2096,1,2088,2101,2058,1
0.7,1990,2027,2073,1,2020,2048,2091,1,3858,2206,2019,1,420,264,215,1,2038,2025,2015,1,1952,1947,2053,1,2063,2073,2097,1,2081,2101,2061,1
0.701,1985,2027,2077,1,2020,2047,2095,1,3918,2214,2023,1,425,265,218,1,2039,2026,2015,1,1922,1944,2051,1,2052,2070,2096,1,2086,2100,2055,1
0.702,1992,2025,2081,1,2024,2048,2097,1,3883,2260,2024,1,422,271,217,1,2038,2029,2016,1,1940,1921,2053,1,2052,2061,2091,1,2077,2103,2056,1
0.703,2001,2032,2078,1,2027,2050,2093,1,3810,2193,2023,1,413,264,216,1,2035,2025,2014,1,1976,1951,2050,1,2064,2071,2095,1,2080,2089,2053,1
0.704,1991,2028,2074,1,2025,2050,2092,1,3877,2224,2026,1,422,268,217,1,2039,2028,2015,1,1944,1938,2050,1,2056,2065,2091,1,2080,2094,2054,1
0.705,1986,2027,2074,1,2026,2050,2089,1,3895,2210,2026,1,421,267,217,1,2039,2027,2015,1,1935,1944,2050,1,2054,2066,2091,1,2085,2096,2054,1
0.707,1985,2027,2068,1,2026,2050,2083,1,3887,2210,2027,1,421,267,218,1,2039,2027,2017,1,1940,1944,2051,1,2054,2066,2091,1,2079,2096,2056,1
0.707,1985,2023,2071,1,2026,2046,2087,1,3887,2221,2028,1,421,266,219,1,2039,2029,2017,1,1940,1947,2051,1,2054,2069,2090,1,2079,2091,2055,1
0.709,1992,2022,2071,1,2027,2045,2087,1,3838,2244,2028,1,415,267,219,1,2038,2031,2017,1,1947,1934,2051,1,2047,2065,2090,1,2089,2097,2055,1
0.71,2000,2029,2073,1,2029,2046,2087,1,3802,2180,2028,1,409,262,219,1,2035,2028,2015,1,1973,1963,2048,1,2052,2073,2088,1,2080,2084,2049,1
0.711,1991,2028,2072,1,2026,2045,2088,1,3875,2219,2029,1,418,262,220,1,2038,2028,2014,1,1941,1942,2048,1,2045,2065,2092,1,2084,2090,2050,1
0.712,1995,2021,2075,1,2027,2045,2089,1,3849,2307,2031,1,416,259,221,1,2036,2024,2016,1,1956,1943,2052,1,2047,2066,2085,1,2076,2089,2050,1
0.712,1995,2025,2069,1,2027,2045,2083,1,3849,2229,2030,1,416,259,221,1,2036,2024,2018,1,1956,1943,2054,1,2047,2066,2085,1,2076,2089,2052,1
0.713,1989,2024,2069,1,2024,2045,2083,1,3873,2216,2030,1,416,256,221,1,2035,2023,2018,1,1946,1947,2054,1,2048,2067,2085,1,2084,2098,2052,1
0.714,1987,2024,2063,1,2021,2045,2077,1,3866,2216,2029,1,417,256,222,1,2036,2023,2018,1,1950,1947,2054,1,2050,2067,2092,1,2078,2098,2056,1
0.715,1987,2021,2063,1,2021,2046,2076,1,3866,2237,2026,1,417,263,219,1,2036,2025,2016,1,1950,1947,2053,1,2050,2063,2092,1,2078,2091,2056,1
0.716,1985,2021,2066,1,2019,2045,2079,1,3876,2259,2025,1,419,263,218,1,2037,2026,2018,1,1946,1930,2056,1,2052,2057,2095,1,2077,2096,2061,1
0.717,1993,2028,2066,1,2018,2045,2079,1,3823,2188,2023,1,411,256,219,1,2034,2023,2017,1,1973,1961,2053,1,2053,2068,2094,1,2070,2090,2058,1
0.718,1988,2027,2069,1,2017,2046,2081,1,3889,2231,2024,1,420,263,219,1,2036,2027,2014,1,1940,1939,2047,1,2044,2057,2093,1,2077,2090,2059,1
0.719,1992,2021,2074,1,2016,2046,2084,1,3855,2241,2023,1,416,264,216,1,2035,2025,2015,1,1957,1941,2052,1,2046,2057,2093,1,2071,2088,2059,1
0.72,1989,2030,2071,1,2014,2048,2082,1,3868,2241,2023,1,420,264,219,1,2037,2025,2018,1,1950,1941,2054,1,2045,2057,2094,1,2069,2088,2062,1
0.722,1989,2026,2068,1,2014,2047,2079,1,3868,2222,2023,1,420,266,218,1,2037,2027,2017,1,1950,1946,2052,1,2045,2058,2092,1,2069,2085,2063,1
0.722,1990,2024,2068,1,2014,2047,2079,1,3852,2232,2023,1,415,267,218,1,2036,2027,2017,1,1947,1940,2052,1,2047,2055,2092,1,2077,2091,2063,1
0.723,1993,2030,2065,1,2015,2048,2076,1,3831,2169,2021,1,414,258,217,1,2036,2022,2017,1,1959,1968,2052,1,2047,2065,2094,1,2071,2086,2064,1
0.725,1986,2027,2066,1,2013,2048,2074,1,3898,2218,2020,1,421,264,215,1,2038,2025,2015,1,1929,1943,2048,1,2041,2054,2092,1,2080,2089,2063,1
0.726,1992,2024,2069,1,2014,2047,2075,1,3835,2275,2019,1,416,268,214,1,2037,2028,2017,1,1962,1913,2050,1,2047,2039,2092,1,2073,2088,2065,1
0.727,2004,2033,2070,1,2018,2048,2075,1,3759,2205,2019,1,409,259,215,1,2036,2023,2017,1,1956,1945,2050,1,2041,2052,2090,1,2074,2082,2061,1
0.727,1994,2036,2070,1,2016,2048,2075,1,3839,2182,2019,1,415,260,215,1,2036,2023,2017,1,1956,1958,2050,1,2041,2057,2090,1,2074,2079,2061,1
0.728,1991,2036,2073,1,2016,2048,2079,1,3855,2182,2020,1,418,260,212,1,2037,2023,2015,1,1951,1958,2050,1,2044,2057,2087,1,2072,2079,2063,1
0.729,1991,2028,2069,1,2016,2045,2077,1,3855,2194,2021,1,418,261,215,1,2037,2026,2015,1,1951,1956,2048,1,2044,2060,2087,1,2072,2082,2060,1
0.73,1990,2022,2069,1,2022,2045,2077,1,3842,2214,2021,1,416,264,215,1,2036,2028,2015,1,1946,1947,2048,1,2044,2057,2087,1,2077,2090,2060,1
0.731,1990,2025,2066,1,2023,2047,2074,1,3819,2157,2021,1,415,258,214,1,2036,2024,2014,1,1960,1972,2047,1,2048,2066,2087,1,2074,2081,2060,1
0.732,1982,2022,2061,1,2024,2046,2071,1,3889,2191,2021,1,423,258,217,1,2038,2025,2014,1,1930,1956,2048,1,2042,2062,2089,1,2081,2092,2059,1
0.733,1984,2017,2063,1,2025,2045,2074,1,3870,2265,2023,1,422,264,220,1,2038,2028,2017,1,1942,1922,2050,1,2046,2048,2087,1,2076,2086,2060,1
0.734,1999,2024,2065,1,2030,2045,2075,1,3846,2199,2023,1,418,258,220,1,2037,2025,2016,1,1947,1952,2049,1,2041,2059,2086,1,2075,2086,2055,1
0.735,1991,2033,2066,1,2029,2047,2076,1,3846,2184,2023,1,418,254,221,1,2037,2022,2018,1,1947,1955,2051,1,2041,2060,2086,1,2075,2081,2052,1
0.736,1991,2032,2066,1,2032,2047,2076,1,3860,2193,2023,1,416,255,221,1,2037,2022,2018,1,1947,1952,2051,1,2043,2059,2086,1,2077,2090,2052,1
0.737,1988,2032,2063,1,2031,2047,2073,1,3848,2193,2025,1,414,255,222,1,2037,2022,2019,1,1954,1952,2050,1,2048,2059,2083,1,2075,2090,2053,1
0.738,1979,2028,2060,1,2030,2048,2070,1,3912,2204,2025,1,420,259,219,1,2039,2024,2017,1,1925,1949,2049,1,2042,2059,2084,1,2084,2099,2055,1
0.74,1981,2022,2060,1,2030,2048,2068,1,3880,2250,2025,1,416,263,217,1,2038,2026,2019,1,1940,1925,2051,1,2049,2052,2082,1,2080,2103,2058,1
0.742,1987,2026,2057,1,2030,2048,2066,1,3811,2184,2023,1,408,255,217,1,2035,2022,2018,1,1976,1955,2051,1,2054,2061,2084,1,2074,2092,2056,1
0.744,1981,2023,2057,1,2029,2048,2066,1,3878,2216,2022,1,415,261,215,1,2037,2025,2017,1,1943,1940,2050,1,2045,2055,2082,1,2080,2095,2053,1
0.745,1983,2023,2062,1,2029,2048,2069,1,3897,2216,2022,1,419,261,215,1,2037,2025,2017,1,1935,1940,2050,1,2038,2055,2082,1,2075,2095,2053,1
0.746,1983,2028,2068,1,2029,2047,2075,1,3897,2199,2025,1,419,262,216,1,2037,2027,2016,1,1935,1949,2051,1,2038,2056,2077,1,2075,2082,2048,1
0.746,1989,2027,2068,1,2028,2047,2075,1,3878,2209,2025,1,420,264,216,1,2037,2028,2016,1,1944,1946,2051,1,2039,2055,2077,1,2072,2088,2048,1
0.746,1990,2027,2066,1,2025,2047,2074,1,3855,2209,2025,1,415,264,216,1,2035,2028,2015,1,1954,1946,2051,1,2044,2055,2073,1,2068,2088,2048,1
0.748,1983,2024,2060,1,2023,2046,2071,1,3915,2218,2025,1,421,261,218,1,2036,2027,2016,1,1924,1941,2052,1,2036,2055,2077,1,2075,2095,2050,1
0.748,1986,2017,2059,1,2022,2044,2069,1,3876,2267,2026,1,418,264,220,1,2034,2029,2018,1,1942,1917,2054,1,2041,2050,2071,1,2069,2102,2050,1
0.748,1995,2020,2057,1,2021,2044,2068,1,3795,2198,2025,1,409,258,221,1,2031,2025,2018,1,1946,1950,2054,1,2045,2060,2072,1,2072,2091,2050,1
0.749,1986,2019,2055,1,2016,2044,2068,1,3865,2234,2023,1,417,261,222,1,2035,2026,2018,1,1946,1932,2055,1,2045,2053,2074,1,2072,2096,2051,1
0.75,1985,2023,2058,1,2010,2044,2068,1,3882,2219,2023,1,419,259,222,1,2036,2025,2018,1,1941,1940,2055,1,2040,2055,2074,1,2072,2096,2051,1
0.751,1989,2023,2066,1,2009,2044,2073,1,3873,2219,2023,1,417,259,223,1,2035,2025,2019,1,1945,1940,2055,1,2038,2055,2067,1,2064,2096,2045,1
0.752,1989,2027,2067,1,2009,2046,2073,1,3873,2237,2022,1,417,265,221,1,2035,2025,2019,1,1945,1941,2055,1,2038,2051,2070,1,2064,2083,2047,1
0.753,1991,2025,2069,1,2009,2045,2073,1,3864,2259,2022,1,417,265,221,1,2035,2026,2022,1,1949,1929,2057,1,2038,2049,2064,1,2059,2091,2047,1
0.755,1995,2029,2067,1,2009,2045,2072,1,3814,2189,2022,1,414,258,223,1,2035,2023,2021,1,1974,1960,2056,1,2047,2059,2067,1,2059,2082,2048,1
0.756,1986,2022,2063,1,2006,2044,2070,1,3882,2234,2023,1,423,265,223,1,2039,2027,2018,1,1944,1940,2052,1,2041,2053,2066,1,2068,2088,2052,1
0.757,1988,2012,2063,1,2007,2045,2068,1,3848,2249,2023,1,421,270,221,1,2038,2029,2018,1,1959,1944,2051,1,2045,2053,2066,1,2064,2083,2052,1
0.757,1988,2019,2065,1,2007,2045,2067,1,3848,2249,2021,1,421,270,216,1,2038,2029,2016,1,1959,1944,2050,1,2045,2053,2063,1,2064,2083,2052,1
0.758,1987,2022,2065,1,2008,2046,2067,1,3868,2236,2021,1,420,269,216,1,2037,2028,2016,1,1949,1945,2050,1,2038,2050,2063,1,2068,2083,2052,1
0.759,1990,2022,2068,1,2010,2046,2068,1,3858,2236,2020,1,420,269,217,1,2038,2028,2016,1,1955,1945,2049,1,2034,2050,2062,1,2060,2083,2048,1
0.76,1990,2025,2069,1,2010,2043,2070,1,3858,2252,2022,1,420,264,219,1,2038,2026,2016,1,1955,1946,2048,1,2034,2064,2063,1,2060,2073,2045,1
0.761,1993,2022,2073,1,2013,2044,2073,1,3828,2277,2024,1,415,269,219,1,2036,2029,2017,1,1970,1930,2050,1,2035,2054,2060,1,2059,2078,2047,1
0.762,1997,2028,2071,1,2016,2047,2071,1,3781,2205,2022,1,408,262,216,1,2033,2024,2014,1,1994,1958,2049,1,2043,2060,2064,1,2061,2072,2050,1
0.763,1987,2025,2064,1,2017,2046,2068,1,3858,2224,2023,1,415,262,219,1,2035,2025,2014,1,1958,1948,2049,1,2040,2057,2066,1,2073,2082,2054,1
0.764,1989,2021,2063,1,2020,2048,2066,1,3825,2254,2025,1,410,263,219,1,2033,2023,2016,1,1972,1945,2049,1,2043,2054,2066,1,2070,2084,2054,1
0.765,1989,2021,2060,1,2023,2048,2062,1,3842,2254,2024,1,411,263,218,1,2033,2023,2017,1,1963,1945,2051,1,2039,2054,2069,1,2065,2084,2057,1
0.766,1989,2025,2062,1,2023,2048,2064,1,3842,2238,2024,1,411,261,219,1,2033,2022,2017,1,1963,1947,2051,1,2039,2051,2067,1,2065,2083,2054,1
0.767,1995,2027,2062,1,2030,2048,2064,1,3827,2250,2024,1,411,261,219,1,2034,2023,2017,1,1959,1937,2051,1,2036,2046,2067,1,2068,2085,2054,1
0.768,2000,2033,2067,1,2033,2047,2069,1,3802,2181,2027,1,407,254,221,1,2032,2020,2017,1,1976,1965,2050,1,2036,2056,2065,1,2062,2078,2050,1
0.769,1992,2030,2067,1,2033,2048,2071,1,3876,2216,2029,1,414,261,221,1,2035,2024,2015,1,1944,1948,2047,1,2032,2049,2068,1,2070,2082,2050,1
0.77,1995,2021,2070,1,2034,2048,2072,1,3856,2294,2029,1,412,272,219,1,2035,2030,2017,1,1954,1950,2050,1,2034,2050,2066,1,2066,2082,2054,1
0.771,1994,2026,2066,1,2033,2049,2068,1,3824,2222,2027,1,409,266,217,1,2035,2027,2016,1,1953,1950,2050,1,2038,2050,2068,1,2072,2082,2056,1
0.772,1994,2020,2066,1,2033,2047,2068,1,3824,2203,2027,1,409,261,217,1,2035,2026,2016,1,1953,1956,2050,1,2038,2054,2068,1,2072,2085,2056,1
0.773,1990,2020,2059,1,2030,2047,2065,1,3834,2203,2028,1,413,261,220,1,2037,2026,2017,1,1953,1956,2049,1,2038,2054,2070,1,2068,2085,2057,1
0.774,1990,2019,2057,1,2030,2047,2063,1,3834,2224,2026,1,413,260,220,1,2037,2024,2018,1,1953,1950,2050,1,2038,2050,2071,1,2068,2084,2057,1
0.775,1990,2019,2059,1,2028,2045,2064,1,3838,2247,2027,1,414,261,222,1,2036,2026,2021,1,1953,1936,2052,1,2036,2044,2070,1,2064,2088,2057,1
0.776,1997,2025,2063,1,2027,2045,2068,1,3799,2181,2027,1,411,255,222,1,2034,2024,2019,1,1977,1965,2050,1,2034,2053,2069,1,2058,2079,2054,1
0.777,1991,2025,2064,1,2025,2046,2070,1,3872,2225,2027,1,417,261,219,1,2035,2026,2015,1,1944,1944,2047,1,2028,2045,2072,1,2066,2084,2057,1
0.778,1994,2019,2068,1,2023,2046,2072,1,3844,2238,2027,1,415,260,216,1,2034,2022,2016,1,1959,1946,2051,1,2032,2046,2073,1,2062,2085,2057,1
0.779,1991,2027,2064,1,2018,2047,2069,1,3860,2238,2025,1,414,260,217,1,2034,2022,2017,1,1951,1946,2053,1,2035,2046,2076,1,2063,2085,2060,1
0.78,1991,2027,2062,1,2018,2047,2067,1,3860,2220,2024,1,414,261,216,1,2034,2023,2016,1,1951,1952,2053,1,2035,2051,2077,1,2063,2089,2062,1
0.781,1989,2026,2062,1,2013,2047,2067,1,3849,2230,2024,1,413,260,216,1,2034,2023,2016,1,1951,1945,2053,1,2037,2049,2077,1,2071,2095,2062,1
0.782,1993,2031,2062,1,2012,2047,2067,1,3827,2167,2023,1,411,252,216,1,2033,2019,2017,1,1963,1971,2054,1,2036,2057,2078,1,2064,2086,2061,1
0.783,1985,2031,2063,1,2008,2047,2067,1,3895,2178,2022,1,417,256,217,1,2035,2021,2015,1,1934,1966,2050,1,2032,2054,2075,1,2073,2089,2056,1
0.784,1990,2025,2067,1,2007,2045,2068,1,3854,2253,2021,1,412,267,215,1,2033,2027,2016,1,1954,1932,2050,1,2034,2040,2071,1,2066,2087,2055,1
0.785,2001,2033,2070,1,2010,2047,2070,1,3765,2192,2019,1,412,261,214,1,2035,2023,2014,1,1954,1958,2049,1,2033,2048,2072,1,2069,2078,2054,1
0.786,1992,2030,2070,1,2007,2044,2070,1,3843,2178,2019,1,412,259,214,1,2035,2025,2014,1,1954,1965,2049,1,2033,2052,2072,1,2069,2078,2054,1
0.787,1989,2030,2068,1,2007,2044,2070,1,3855,2178,2020,1,414,259,218,1,2036,2025,2015,1,1951,1965,2048,1,2037,2052,2067,1,2066,2078,2050,1
0.788,1989,2028,2065,1,2007,2047,2067,1,3855,2201,2019,1,414,260,217,1,2036,2024,2016,1,1951,1956,2049,1,2037,2050,2071,1,2066,2078,2052,1
0.789,1988,2023,2065,1,2010,2045,2067,1,3836,2222,2019,1,411,261,217,1,2036,2026,2016,1,1951,1947,2049,1,2040,2050,2071,1,2071,2088,2052,1
0.79,1991,2024,2063,1,2012,2045,2064,1,3810,2162,2021,1,407,256,219,1,2034,2023,2016,1,1967,1972,2048,1,2042,2057,2068,1,2066,2077,2048,1
0.791,1982,2020,2062,1,2013,2046,2063,1,3882,2224,2021,1,417,264,218,1,2038,2027,2014,1,1938,1942,2045,1,2034,2045,2070,1,2069,2080,2046,1
0.792,1985,2017,2064,1,2015,2047,2061,1,3861,2297,2021,1,415,270,216,1,2037,2030,2016,1,1950,1942,2048,1,2034,2042,2062,1,2063,2070,2045,1
0.793,2001,2025,2065,1,2021,2048,2063,1,3835,2223,2021,1,413,261,217,1,2037,2024,2016,1,1956,1942,2048,1,2032,2042,2065,1,2063,2070,2042,1
0.794,1993,2027,2067,1,2021,2047,2066,1,3835,2203,2024,1,413,261,218,1,2037,2025,2016,1,1956,1953,2049,1,2032,2047,2063,1,2063,2069,2041,1
0.795,1991,2025,2067,1,2025,2048,2066,1,3849,2212,2024,1,416,263,218,1,2037,2025,2016,1,1956,1950,2049,1,2036,2046,2063,1,2067,2078,2041,1
0.796,1990,2025,2062,1,2026,2048,2062,1,3836,2212,2024,1,415,263,214,1,2037,2025,2014,1,1965,1950,2049,1,2041,2046,2064,1,2064,2078,2047,1
0.797,1982,2022,2060,1,2026,2048,2062,1,3903,2204,2026,1,421,264,215,1,2038,2025,2012,1,1935,1955,2047,1,2035,2048,2066,1,2072,2084,2047,1
0.798,1982,2016,2061,1,2026,2046,2061,1,3889,2259,2028,1,418,267,213,1,2036,2028,2013,1,1941,1931,2048,1,2037,2044,2060,1,2067,2091,2048,1
0.799,1992,2020,2062,1,2026,2046,2063,1,3804,2193,2030,1,408,261,216,1,2033,2025,2013,1,1946,1959,2048,1,2030,2052,2059,1,2063,2079,2044,1
0.8,1985,2020,2059,1,2026,2047,2062,1,3872,2231,2027,1,416,262,217,1,2036,2025,2016,1,1946,1938,2049,1,2030,2043,2058,1,2063,2082,2041,1
0.801,1988,2020,2063,1,2026,2047,2062,1,3887,2231,2027,1,421,262,217,1,2038,2025,2016,1,1945,1938,2049,1,2027,2043,2058,1,2061,2082,2041,1
0.802,1988,2026,2067,1,2026,2048,2066,1,3887,2218,2027,1,421,265,217,1,2038,2026,2016,1,1945,1944,2049,1,2027,2042,2056,1,2061,2074,2042,1
0.803,1991,2026,2067,1,2026,2048,2066,1,3863,2228,2027,1,420,264,217,1,2039,2025,2016,1,1951,1939,2049,1,2033,2042,2056,1,2066,2081,2042,1
0.804,1992,2032,2065,1,2025,2048,2066,1,3836,2165,2028,1,418,255,219,1,2039,2021,2017,1,1966,1967,2050,1,2039,2051,2057,1,2063,2077,2045,1
0.805,1984,2026,2061,1,2023,2047,2064,1,3901,2196,2029,1,423,261,220,1,2040,2025,2016,1,1938,1956,2048,1,2037,2049,2060,1,2074,2084,2048,1
0.806,1986,2017,2061,1,2021,2045,2064,1,3858,2266,2029,1,417,270,219,1,2037,2031,2017,1,1957,1927,2049,1,2039,2042,2057,1,2068,2082,2051,1
0.807,1997,2021,2060,1,2022,2046,2063,1,3767,2200,2028,1,413,264,219,1,2036,2027,2016,1,1954,1956,2047,1,2036,2049,2057,1,2068,2082,2051,1
0.808,1988,2025,2061,1,2019,2046,2062,1,3844,2184,2025,1,413,257,220,1,2036,2023,2017,1,1954,1959,2048,1,2036,2049,2055,1,2068,2080,2050,1
0.809,1989,2026,2061,1,2016,2045,2062,1,3860,2193,2025,1,415,260,220,1,2036,2025,2017,1,1953,1957,2048,1,2033,2048,2055,1,2069,2083,2050,1
0.81,1992,2026,2069,1,2018,2045,2069,1,3849,2193,2026,1,415,260,220,1,2035,2025,2015,1,1959,1957,2048,1,2032,2048,2054,1,2062,2083,2050,1
0.811,1987,2028,2068,1,2018,2046,2068,1,3912,2204,2025,1,422,261,217,1,2036,2025,2013,1,1931,1953,2047,1,2028,2046,2058,1,2071,2087,2053,1
0.812,1989,2024,2069,1,2018,2046,2069,1,3882,2250,2025,1,417,263,216,1,2034,2026,2015,1,1945,1932,2051,1,2031,2041,2058,1,2065,2091,2056,1
0.813,1993,2028,2062,1,2018,2046,2064,1,3813,2185,2023,1,412,255,219,1,2033,2021,2015,1,1977,1961,2050,1,2040,2051,2063,1,2063,2086,2056,1
0.814,1986,2023,2056,1,2018,2047,2060,1,3880,2218,2021,1,418,260,219,1,2034,2023,2015,1,1946,1946,2048,1,2035,2045,2060,1,2071,2088,2056,1
0.815,1983,2023,2055,1,2018,2047,2057,1,3897,2218,2020,1,419,260,219,1,2033,2023,2015,1,1936,1946,2048,1,2030,2045,2060,1,2070,2088,2056,1
0.816,1983,2021,2058,1,2018,2044,2060,1,3897,2201,2020,1,419,259,220,1,2033,2024,2015,1,1936,1954,2047,1,2030,2048,2060,1,2070,2081,2056,1
0.817,1985,2022,2058,1,2017,2044,2060,1,3877,2211,2020,1,416,262,220,1,2033,2026,2015,1,1942,1951,2047,1,2029,2045,2060,1,2071,2083,2056,1
0.818,1989,2022,2066,1,2018,2044,2067,1,3853,2211,2021,1,415,262,219,1,2034,2026,2014,1,1957,1951,2046,1,2030,2045,2060,1,2065,2083,2053,1
0.819,1983,2021,2065,1,2017,2043,2067,1,3914,2240,2024,1,421,265,223,1,2036,2029,2015,1,1931,1940,2045,1,2028,2044,2061,1,2074,2089,2051,1
0.82,1989,2016,2068,1,2018,2042,2070,1,3852,2283,2026,1,415,268,223,1,2035,2032,2017,1,1960,1920,2046,1,2034,2039,2061,1,2070,2092,2053,1
0.821,1995,2021,2065,1,2021,2043,2068,1,3779,2211,2026,1,410,263,224,1,2034,2029,2017,1,1955,1953,2045,1,2036,2049,2061,1,2074,2085,2052,1
0.822,1987,2018,2058,1,2021,2045,2059,1,3854,2245,2025,1,416,266,221,1,2036,2029,2017,1,1955,1937,2046,1,2036,2045,2062,1,2074,2091,2055,1
0.823,1984,2018,2057,1,2022,2045,2059,1,3877,2227,2025,1,417,262,221,1,2035,2027,2017,1,1947,1945,2046,1,2032,2048,2062,1,2074,2095,2055,1
0.824,1985,2018,2057,1,2022,2045,2060,1,3868,2227,2028,1,416,262,224,1,2035,2027,2018,1,1952,1945,2047,1,2036,2048,2061,1,2072,2095,2050,1
0.825,1985,2021,2060,1,2022,2047,2061,1,3868,2245,2025,1,416,268,220,1,2035,2027,2016,1,1952,1949,2047,1,2036,2047,2061,1,2072,2087,2050,1
0.826,1991,2023,2063,1,2024,2048,2064,1,3840,2268,2025,1,416,269,219,1,2035,2027,2018,1,1967,1934,2051,1,2035,2041,2062,1,2065,2088,2052,1
0.827,1999,2032,2064,1,2026,2048,2066,1,3795,2197,2025,1,409,259,218,1,2032,2022,2017,1,1989,1962,2052,1,2034,2050,2064,1,2059,2079,2052,1
0.828,1991,2030,2063,1,2025,2048,2066,1,3869,2218,2027,1,419,263,218,1,2035,2024,2013,1,1956,1953,2051,1,2031,2047,2065,1,2069,2085,2054,1
0.829,1992,2018,2065,1,2024,2045,2067,1,3837,2243,2027,1,413,264,215,1,2033,2024,2014,1,1970,1954,2051,1,2033,2048,2065,1,2064,2084,2054,1
0.83,1992,2021,2060,1,2024,2045,2064,1,3837,2243,2029,1,413,264,217,1,2033,2024,2014,1,1970,1954,2049,1,2033,2048,2064,1,2064,2084,2053,1
0.831,1985,2019,2060,1,2021,2044,2064,1,3859,2232,2029,1,417,263,217,1,2035,2024,2014,1,1961,1956,2049,1,2035,2050,2064,1,2069,2091,2053,1
0.832,1988,2019,2058,1,2022,2044,2064,1,3849,2232,2032,1,416,263,220,1,2034,2024,2015,1,1965,1956,2049,1,2034,2050,2062,1,2063,2091,2049,1
0.833,1982,2023,2060,1,2021,2046,2066,1,3912,2231,2030,1,424,263,219,1,2037,2023,2014,1,1937,1953,2050,1,2027,2048,2065,1,2066,2095,2052,1
0.834,1989,2024,2062,1,2021,2045,2066,1,3860,2268,2029,1,417,264,219,1,2034,2025,2016,1,1960,1933,2053,1,2033,2042,2062,1,2061,2097,2051,1
0.835,1998,2031,2064,1,2020,2045,2070,1,3797,2197,2029,1,409,256,222,1,2031,2022,2016,1,1991,1961,2053,1,2036,2050,2064,1,2057,2084,2049,1
0.836,1992,2030,2063,1,2018,2046,2069,1,3869,2227,2028,1,416,263,219,1,2034,2025,2015,1,1957,1947,2053,1,2030,2046,2066,1,2063,2088,2052,1
0.837,1988,2030,2064,1,2017,2047,2069,1,3891,2213,2027,1,422,263,219,1,2037,2025,2015,1,1947,1953,2053,1,2032,2048,2066,1,2067,2091,2052,1
0.838,1986,2030,2059,1,2016,2047,2064,1,3884,2213,2025,1,422,263,217,1,2037,2025,2014,1,1948,1953,2050,1,2035,2048,2065,1,2063,2091,2053,1
0.839,1986,2018,2055,1,2016,2044,2062,1,3884,2226,2025,1,422,268,219,1,2037,2028,2014,1,1948,1955,2049,1,2035,2049,2065,1,2063,2086,2052,1
0.84,1984,2015,2054,1,2012,2044,2057,1,3875,2248,2024,1,419,270,216,1,2036,2030,2015,1,1949,1943,2047,1,2035,2045,2060,1,2060,2089,2050,1
0.841,1989,2019,2054,1,2011,2046,2057,1,3827,2184,2022,1,416,264,216,1,2036,2026,2013,1,1973,1967,2045,1,2037,2050,2061,1,2056,2077,2049,1
0.842,1983,2020,2055,1,2009,2046,2058,1,3892,2225,2021,1,422,264,216,1,2038,2026,2012,1,1943,1946,2045,1,2029,2043,2065,1,2063,2082,2048,1
0.843,1988,2017,2058,1,2009,2046,2059,1,3859,2314,2021,1,418,262,217,1,2036,2023,2016,1,1959,1948,2050,1,2033,2043,2062,1,2060,2080,2048,1
0.844,1988,2027,2061,1,2009,2047,2062,1,3859,2238,2021,1,418,262,217,1,2036,2023,2016,1,1959,1948,2052,1,2033,2043,2062,1,2060,2080,2049,1
0.845,1988,2029,2061,1,2010,2048,2062,1,3876,2227,2021,1,420,260,217,1,2036,2020,2016,1,1954,1950,2052,1,2035,2044,2062,1,2066,2084,2049,1
0.846,1988,2029,2057,1,2012,2048,2057,1,3866,2227,2020,1,420,260,216,1,2035,2020,2016,1,1956,1950,2052,1,2035,2044,2062,1,2060,2084,2052,1
0.847,1988,2020,2055,1,2012,2045,2056,1,3866,2247,2022,1,420,265,218,1,2035,2023,2015,1,1956,1954,2049,1,2035,2048,2062,1,2060,2084,2051,1
0.848,1989,2018,2054,1,2013,2046,2054,1,3837,2273,2023,1,414,270,217,1,2033,2026,2015,1,1967,1939,2048,1,2037,2043,2056,1,2057,2086,2051,1
