Time (s),G0_Short,G0_Long1,G0_Long2,G0_Emitter,G1_Short,G1_Long1,G1_Long2,G1_Emitter,G2_Short,G2_Long1,G2_Long2,G2_Emitter,G3_Short,G3_Long1,G3_Long2,G3_Emitter,G4_Short,G4_Long1,G4_Long2,G4_Emitter,G5_Short,G5_Long1,G5_Long2,G5_Emitter,G6_Short,G6_Long1,G6_Long2,G6_Emitter,G7_Short,G7_Long1,G7_Long2,G7_Emitter
0.0,1780,1992,2066,1,1897,2026,2073,1,1880,2031,2040,1,414,243,201,1,2150,2130,2127,1,1535,1792,2037,1,2014,2030,2055,1,2068,2063,2058,1
0.001,1867,1996,2062,2,1938,2033,2097,2,1920,2033,2042,2,396,245,201,2,2144,2129,2124,2,1787,1807,2041,2,2026,2023,2055,2,2060,2062,2058,2
0.002,1813,2005,2065,1,1906,2029,2071,1,1888,2035,2040,1,403,238,201,1,2146,2127,2124,1,1677,1847,2036,1,2028,2035,2053,1,2065,2062,2058,1
0.003,1867,1996,2063,2,1938,2033,2092,2,1920,2033,2042,2,396,245,201,2,2144,2129,2126,2,1787,1807,2043,2,2026,2023,2057,2,2060,2062,2058,2
0.004,1802,1993,2063,1,1903,2028,2070,1,1886,2032,2041,1,407,242,202,1,2148,2129,2121,1,1632,1795,2035,1,2024,2032,2053,1,2065,2065,2057,1
0.005,1867,1996,2063,2,1938,2033,2083,2,1920,2033,2042,2,396,245,201,2,2144,2129,2127,2,1787,1807,2044,2,2026,2023,2057,2,2060,2062,2058,2
0.006,1823,1956,2065,1,1909,2024,2070,1,1891,2029,2041,1,401,247,202,1,2145,2130,2123,1,1711,1769,2035,1,2030,2030,2053,1,2062,2065,2057,1
0.007,1867,1996,2063,2,1938,2033,2075,2,1920,2033,2042,2,396,245,201,2,2144,2129,2128,2,1787,1807,2044,2,2026,2023,2058,2,2060,2062,2058,2
0.008,1823,1977,2065,1,1909,2024,2069,1,1891,2029,2041,1,401,247,202,1,2145,2130,2123,1,1711,1769,2036,1,2030,2030,2052,1,2062,2065,2057,1
0.009,1867,1996,2063,2,1938,2033,2066,2,1920,2033,2042,2,396,245,204,2,2144,2129,2129,2,1787,1807,2045,2,2026,2023,2058,2,2060,2062,2058,2
0.01,1827,1978,2065,1,1909,2025,2069,1,1890,2030,2041,1,399,247,202,1,2143,2131,2123,1,1724,1763,2036,1,2029,2029,2052,1,2061,2066,2057,1
0.011,1867,1996,2065,2,1938,2033,2058,2,1920,2033,2042,2,396,245,205,2,2144,2129,2129,2,1787,1807,2044,2,2026,2023,2060,2,2060,2062,2058,2
0.012,1832,1978,2064,1,1911,2025,2070,1,1890,2030,2041,1,396,247,203,1,2142,2131,2122,1,1745,1763,2035,1,2031,2029,2051,1,2060,2066,2057,1
0.013,1867,1996,2065,2,1938,2033,2051,2,1920,2033,2042,2,396,245,205,2,2144,2129,2130,2,1787,1807,2044,2,2026,2023,2061,2,2060,2062,2058,2
0.014,1832,1968,2064,1,1911,2023,2070,1,1890,2027,2041,1,396,250,203,1,2142,2131,2121,1,1745,1750,2034,1,2031,2034,2049,1,2060,2063,2056,1
0.015,1867,1996,2065,2,1938,2033,2045,2,1920,2033,2041,2,396,245,204,2,2144,2129,2129,2,1787,1807,2044,2,2026,2023,2060,2,2060,2062,2058,2
0.016,1836,1959,2065,1,1911,2021,2072,1,1891,2024,2041,1,395,254,203,1,2142,2134,2123,1,1768,1690,2036,1,2033,2026,2052,1,2060,2064,2057,1
0.017,1867,1996,2065,2,1938,2033,2040,2,1920,2033,2042,2,396,245,203,2,2144,2129,2129,2,1787,1807,2044,2,2026,2023,2060,2,2060,2062,2057,2
0.018,1854,1982,2063,1,1916,2025,2072,1,1896,2029,2041,1,390,246,203,1,2141,2130,2122,1,1851,1774,2034,1,2041,2030,2050,1,2060,2063,2057,1
0.019,1867,1996,2065,2,1938,2033,2037,2,1920,2033,2042,2,396,245,204,2,2144,2129,2129,2,1787,1807,2044,2,2026,2023,2060,2,2060,2062,2057,2
0.02,1830,1975,2061,1,1910,2023,2072,1,1892,2027,2041,1,399,249,204,1,2145,2133,2124,1,1755,1735,2032,1,2031,2025,2051,1,2061,2064,2057,1
0.021,1872,1989,2065,2,1934,2030,2037,2,1918,2031,2042,2,392,248,204,2,2142,2131,2129,2,1785,1777,2044,2,2033,2026,2060,2,2060,2063,2057,2
0.022,1826,1981,2063,1,1911,2025,2075,1,1891,2028,2041,1,401,247,204,1,2146,2132,2124,1,1718,1754,2032,1,2024,2025,2051,1,2060,2065,2057,1
0.023,1879,2004,2064,2,1935,2032,2038,2,1920,2035,2042,2,390,243,204,2,2141,2128,2127,2,1828,1841,2041,2,2038,2032,2057,2,2059,2061,2057,2
0.024,1829,1981,2064,1,1912,2025,2079,1,1892,2028,2041,1,401,247,204,1,2146,2132,2124,1,1723,1754,2032,1,2023,2025,2051,1,2058,2065,2057,1
0.025,1860,1994,2063,2,1932,2031,2041,2,1917,2032,2042,2,398,246,204,2,2144,2130,2124,2,1754,1797,2038,2,2036,2034,2054,2,2060,2064,2056,2
0.026,1829,1978,2064,1,1912,2024,2080,1,1892,2026,2041,1,401,248,204,1,2146,2133,2124,1,1723,1751,2032,1,2023,2023,2050,1,2058,2064,2057,1
0.027,1866,1973,2065,2,1933,2027,2043,2,1918,2028,2042,2,395,254,203,2,2142,2134,2125,2,1780,1794,2039,2,2037,2035,2055,2,2058,2063,2056,2
0.028,1843,1972,2064,1,1916,2022,2080,1,1895,2024,2041,1,396,250,204,1,2145,2135,2124,1,1739,1718,2032,1,2013,2020,2050,1,2060,2065,2057,1
0.029,1896,1990,2064,2,1936,2030,2046,2,1920,2032,2042,2,392,246,203,2,2141,2129,2123,2,1784,1794,2037,2,2036,2035,2053,2,2059,2063,2055,2
0.03,1853,1991,2064,1,1919,2025,2080,1,1898,2028,2041,1,393,243,204,1,2144,2131,2124,1,1797,1796,2033,1,2023,2027,2050,1,2058,2063,2057,1
0.031,1875,1994,2064,2,1936,2031,2051,2,1920,2034,2042,2,392,245,203,2,2141,2129,2123,2,1784,1806,2037,2,2036,2036,2053,2,2059,2062,2054,2
0.032,1831,1973,2062,1,1914,2022,2080,1,1894,2024,2041,1,400,249,204,1,2146,2134,2122,1,1712,1712,2029,1,2015,2019,2049,1,2059,2065,2057,1
0.033,1871,1992,2064,2,1936,2031,2051,2,1920,2034,2042,2,394,245,203,2,2142,2130,2123,2,1784,1796,2037,2,2035,2035,2053,2,2060,2064,2054,2
0.034,1839,1950,2064,1,1916,2017,2082,1,1895,2018,2041,1,396,257,203,1,2143,2132,2123,1,1746,1731,2032,1,2020,2021,2051,1,2057,2064,2057,1
0.035,1874,1992,2063,2,1937,2031,2062,2,1920,2034,2043,2,391,245,203,2,2140,2130,2123,2,1804,1796,2036,2,2035,2035,2052,2,2059,2064,2054,2
0.036,1850,1974,2063,1,1919,2022,2080,1,1898,2024,2041,1,393,249,204,1,2144,2132,2122,1,1753,1731,2031,1,2024,2021,2050,1,2059,2064,2057,1
0.037,1857,1989,2062,2,1934,2031,2067,2,1917,2034,2043,2,398,246,203,2,2143,2131,2122,2,1735,1784,2034,2,2026,2033,2050,2,2060,2065,2053,2
0.038,1850,1981,2063,1,1919,2023,2080,1,1898,2026,2041,1,393,246,204,1,2144,2130,2122,1,1753,1748,2031,1,2024,2023,2050,1,2059,2063,2057,1
0.039,1865,1977,2063,2,1937,2029,2072,2,1919,2032,2043,2,396,252,202,2,2143,2135,2123,2,1776,1727,2036,2,2029,2025,2050,2,2058,2065,2054,2
0.04,1847,1981,2064,1,1919,2023,2077,1,1897,2026,2041,1,394,246,202,1,2143,2130,2121,1,1754,1748,2032,1,2024,2023,2050,1,2057,2063,2057,1
0.041,1886,1995,2061,2,1943,2033,2075,2,1924,2036,2043,2,389,244,202,2,2141,2130,2121,2,1855,1803,2036,2,2026,2031,2048,2,2058,2062,2054,2
0.042,1847,1975,2064,1,1919,2023,2075,1,1897,2025,2041,1,394,248,201,1,2143,2130,2121,1,1754,1747,2032,1,2024,2024,2050,1,2057,2064,2057,1
0.043,1867,1986,2059,2,1938,2031,2083,2,1921,2034,2043,2,398,248,204,2,2145,2133,2123,2,1780,1764,2036,2,2026,2026,2050,2,2058,2064,2055,2
0.044,1845,1968,2066,1,1918,2022,2074,1,1897,2024,2041,1,395,251,200,1,2143,2133,2123,1,1760,1707,2034,1,2026,2021,2053,1,2056,2065,2057,1
0.045,1862,1986,2061,2,1937,2031,2083,2,1920,2034,2043,2,400,248,204,2,2146,2133,2123,2,1765,1764,2036,2,2024,2026,2050,2,2059,2064,2055,2
0.046,1858,1988,2065,1,1921,2025,2071,1,1900,2029,2041,1,392,244,201,1,2142,2129,2122,1,1824,1788,2034,1,2033,2027,2052,1,2056,2063,2057,1
0.047,1862,1990,2061,2,1937,2034,2086,2,1920,2035,2043,2,400,248,204,2,2146,2133,2123,2,1765,1782,2036,2,2024,2026,2050,2,2059,2063,2055,2
0.048,1836,1976,2063,1,1915,2024,2068,1,1895,2026,2041,1,398,248,202,1,2144,2132,2120,1,1732,1728,2031,1,2025,2024,2050,1,2058,2065,2057,1
0.049,1866,1988,2061,2,1937,2034,2086,2,1920,2035,2043,2,397,249,204,2,2145,2133,2123,2,1777,1772,2036,2,2028,2024,2050,2,2062,2064,2055,2
0.05,1845,1949,2065,1,1916,2019,2068,1,1896,2026,2041,1,393,251,202,1,2142,2133,2122,1,1771,1738,2034,1,2029,2025,2052,1,2058,2064,2057,1
0.051,1948,1988,2060,2,2010,2034,2087,2,1994,2035,2043,2,397,249,204,2,2146,2133,2123,2,1887,1772,2036,2,2066,2024,2052,2,2066,2064,2056,2
0.052,1839,1973,2065,1,1915,2024,2065,1,1895,2026,2041,1,396,251,203,1,2143,2133,2124,1,1749,1738,2035,1,2028,2025,2053,1,2057,2064,2057,1
0.053,2091,2186,2380,2,2155,2339,2486,2,2142,2203,2284,2,408,254,210,2,2152,2139,2126,2,1988,2092,2448,2,2210,2337,2384,2,2211,2371,2079,2
0.054,1839,1978,2065,1,1915,2025,2064,1,1895,2029,2041,1,396,250,204,1,2143,2133,2125,1,1749,1748,2035,1,2028,2026,2053,1,2057,2063,2056,1
0.055,2573,2507,2713,2,2619,2785,2803,2,2571,2459,2479,2,403,262,210,2,2151,2146,2130,2,2500,2587,2772,2,2234,2778,2340,2,2202,2792,2104,2
0.056,1842,1976,2065,1,1915,2025,2064,1,1895,2029,2041,1,395,250,204,1,2145,2134,2125,1,1749,1732,2035,1,2031,2026,2053,1,2059,2064,2056,1
0.057,2998,2624,2988,2,3033,3112,3149,2,2944,2600,2677,2,397,257,213,2,2149,2142,2132,2,2950,2975,3127,2,2663,3108,2613,2,2574,2726,2111,2
0.058,1850,1994,2065,1,1917,2029,2064,1,1897,2034,2041,1,393,244,204,1,2143,2131,2125,1,1786,1809,2035,1,2034,2031,2053,1,2057,2062,2056,1
0.059,3303,2821,3099,2,3328,3390,3423,2,3257,2754,2929,2,407,263,215,2,2154,2146,2135,2,3260,3290,3606,2,2663,3387,2864,2,2574,3116,2145,2
0.06,1827,1985,2064,1,1911,2028,2064,1,1893,2032,2041,1,401,247,204,1,2146,2133,2123,1,1705,1769,2032,1,2027,2028,2051,1,2060,2064,2055,1
0.061,3698,2912,3361,2,3712,3599,3617,2,3637,2840,2929,2,408,258,215,2,2155,2144,2135,2,3675,3528,3606,2,2960,3595,2864,2,2805,3379,2145,2
0.062,1833,1965,2065,1,1913,2024,2065,1,1895,2027,2040,1,400,253,203,1,2146,2137,2125,1,1731,1679,2034,1,2030,2021,2054,1,2059,2063,2056,1
0.063,3816,2912,3588,2,3827,3599,3859,2,3746,2840,3045,2,407,258,213,2,2155,2144,2134,2,3801,3528,3854,2,2999,3595,2974,2,2622,3379,2158,2
0.064,1866,1985,2065,1,1922,2028,2066,1,1903,2032,2041,1,398,246,204,1,2146,2133,2124,1,1742,1764,2033,1,2030,2027,2052,1,2059,2063,2056,1
0.065,3816,3053,3633,2,3827,3853,3931,2,3746,2950,3069,2,407,259,214,2,2155,2144,2134,2,3801,3818,3927,2,2999,3845,3064,2,2622,3338,2149,2
0.066,1843,1989,2065,1,1917,2028,2066,1,1898,2033,2041,1,398,243,204,1,2146,2130,2124,1,1742,1783,2033,1,2030,2028,2052,1,2059,2063,2056,1
0.067,3958,3113,3633,2,3966,3927,3931,2,3856,2985,3069,2,403,259,214,2,2156,2145,2134,2,3953,3902,3927,2,3366,3919,3064,2,2980,3561,2149,2
0.068,1839,1989,2064,1,1916,2028,2068,1,1897,2033,2041,1,399,243,202,1,2146,2130,2123,1,1738,1783,2034,1,2030,2028,2052,1,2058,2063,2056,1
0.069,3109,2041,3585,2,2732,2424,3904,2,2316,1570,1430,2,380,234,191,2,2143,2132,2121,2,2430,2400,2220,2,2485,2411,2033,2,1673,3190,1749,2
0.07,1839,1984,2064,1,1916,2026,2070,1,1897,2031,2041,1,399,243,201,1,2146,2130,2122,1,1738,1769,2034,1,2030,2026,2052,1,2058,2063,2056,1
0.071,2339,1695,3250,2,2042,1770,3661,2,1713,1144,1033,2,385,234,192,2,2143,2131,2117,2,1811,1755,1163,2,1899,1759,1529,2,2095,3456,1484,2
0.072,1846,1978,2064,1,1917,2025,2070,1,1898,2029,2041,1,393,246,201,1,2144,2131,2122,1,1746,1739,2034,1,2028,2023,2052,1,2059,2064,2056,1
0.073,2112,1335,3432,2,1668,909,3746,2,1229,585,751,2,382,235,192,2,2140,2127,2117,2,1302,899,1163,2,1777,907,1529,2,1627,3295,1484,2
0.074,1855,1995,2063,1,1920,2028,2071,1,1900,2033,2041,1,391,240,201,1,2142,2127,2121,1,1792,1813,2033,1,2032,2029,2051,1,2058,2063,2057,1
0.075,1764,1254,3437,2,1307,909,3709,2,869,585,384,2,381,235,193,2,2137,2127,2115,2,922,899,595,2,1511,907,1310,2,1308,3295,1324,2
0.076,1832,1978,2062,1,1914,2025,2074,1,1896,2029,2041,1,399,247,202,1,2145,2131,2119,1,1711,1736,2030,1,2023,2022,2049,1,2061,2065,2057,1
0.077,1764,1073,3401,2,1307,463,3671,2,869,296,274,2,381,233,195,2,2137,2123,2114,2,922,457,424,2,1511,465,1200,2,1308,3169,1422,2
0.078,1844,1958,2064,1,1917,2021,2078,1,1898,2023,2041,1,395,254,202,1,2144,2135,2122,1,1775,1657,2033,1,2031,2022,2053,1,2061,2063,2057,1
0.079,1472,1009,3401,2,927,331,3671,2,435,211,274,2,384,235,195,2,2137,2123,2114,2,466,326,424,2,1245,335,1200,2,1626,3440,1422,2
0.08,1875,1980,2063,1,1926,2025,2078,1,1900,2028,2041,1,395,247,202,1,2145,2131,2121,1,1766,1747,2033,1,2027,2022,2051,1,2060,2063,2057,1
0.081,1469,1009,3245,2,856,331,3554,2,308,211,140,2,383,235,199,2,2135,2123,2112,2,333,326,217,2,1290,335,1388,2,1329,3440,1235,2
0.082,1850,1986,2063,1,1920,2027,2080,1,1900,2030,2041,1,395,245,202,1,2145,2130,2121,1,1766,1769,2033,1,2027,2024,2051,1,2060,2063,2056,1
0.083,1096,964,3142,2,635,238,3478,2,220,152,101,2,392,238,201,2,2136,2122,2109,2,240,233,157,2,968,241,1077,2,1934,3633,1381,2
0.084,1845,1984,2063,1,1919,2026,2080,1,1898,2029,2041,1,395,246,202,1,2144,2131,2121,1,1754,1760,2033,1,2025,2023,2051,1,2060,2064,2056,1
0.085,1317,891,3375,2,702,177,3627,2,156,110,74,2,386,244,202,2,2132,2124,2110,2,174,168,115,2,1206,185,1269,2,1557,3732,1242,2
0.086,1846,1984,2063,1,1919,2026,2079,1,1899,2029,2041,1,396,246,204,1,2145,2131,2123,1,1774,1760,2033,1,2028,2023,2052,1,2059,2064,2057,1
0.087,1592,976,3316,2,804,129,3581,2,115,80,55,2,381,238,203,2,2128,2118,2108,2,93,122,85,2,1088,135,1104,2,1810,3309,1375,2
0.088,1826,1982,2063,1,1913,2026,2079,1,1893,2029,2041,1,401,248,204,1,2146,2132,2123,1,1694,1749,2032,1,2020,2023,2052,1,2062,2065,2057,1
0.089,1215,930,3004,2,613,96,3532,2,82,59,33,2,387,242,205,2,2128,2119,2106,2,93,90,47,2,1088,102,1023,2,1810,3539,1376,2
0.09,1843,1969,2065,1,1918,2023,2080,1,1897,2025,2041,1,396,252,204,1,2144,2136,2125,1,1763,1689,2035,1,2027,2018,2055,1,2059,2065,2057,1
0.091,1053,930,3251,2,518,96,3532,2,43,59,33,2,389,242,205,2,2127,2119,2106,2,53,90,47,2,973,102,1023,2,2010,3539,1376,2
0.092,1864,1988,2064,1,1923,2026,2077,1,1902,2029,2041,1,389,245,204,1,2142,2132,2125,1,1846,1773,2035,1,2035,2025,2054,1,2060,2063,2057,1
0.093,1053,969,3296,2,518,54,3557,2,43,34,26,2,389,240,205,2,2127,2115,2105,2,53,51,36,2,973,60,1022,2,2010,3299,1477,2
0.094,1840,1979,2062,1,1916,2025,2074,1,1896,2027,2041,1,395,249,204,1,2144,2135,2124,1,1754,1733,2034,1,2027,2023,2053,1,2060,2064,2057,1
0.095,1085,972,3296,2,525,43,3557,2,29,27,26,2,391,241,205,2,2126,2115,2105,2,31,39,36,2,974,48,1022,2,2057,3532,1477,2
0.096,1831,1979,2064,1,1912,2025,2073,1,1893,2027,2041,1,397,249,204,1,2146,2135,2124,1,1728,1733,2034,1,2028,2023,2053,1,2062,2064,2057,1
0.097,1155,972,3264,2,556,43,3530,2,24,27,19,2,390,241,207,2,2125,2115,2104,2,24,39,24,2,1057,48,989,2,1688,3532,1440,2
0.098,1831,1984,2064,1,1912,2027,2071,1,1893,2028,2041,1,397,247,203,1,2146,2133,2124,1,1728,1754,2034,1,2028,2026,2053,1,2062,2064,2057,1
0.099,871,977,3206,2,422,35,3486,2,19,22,16,2,396,242,207,2,2126,2114,2103,2,19,31,21,2,796,39,852,2,2221,3698,1540,2
0.1,1836,1982,2064,1,1914,2027,2071,1,1896,2028,2041,1,398,247,203,1,2146,2132,2124,1,1740,1744,2034,1,2030,2026,2053,1,2061,2065,2057,1
0.101,1009,936,3427,2,487,33,3636,2,18,18,14,2,394,246,207,2,2125,2116,2104,2,16,25,18,2,937,40,1123,2,1813,3791,1393,2
0.102,1844,1982,2065,1,1916,2027,2067,1,1897,2028,2041,1,394,247,202,1,2143,2132,2122,1,1769,1744,2033,1,2032,2026,2052,1,2059,2065,2057,1
0.103,1298,1042,3325,2,617,27,3560,2,16,16,13,2,388,239,207,2,2122,2111,2102,2,13,22,16,2,1226,34,945,2,1543,3343,1498,2
0.104,1825,1979,2065,1,1913,2027,2066,1,1894,2028,2041,1,403,248,202,1,2146,2132,2121,1,1694,1733,2031,1,2026,2026,2051,1,2061,2066,2057,1
0.105,997,1016,3102,2,476,23,3403,2,14,13,12,2,396,242,209,2,2125,2113,2101,2,15,20,15,2,943,31,964,2,2031,3564,1472,2
0.106,1835,1964,2066,1,1915,2023,2065,1,1897,2025,2041,1,400,253,202,1,2145,2135,2123,1,1743,1669,2033,1,2032,2021,2053,1,2060,2066,2057,1
0.107,1168,876,3332,2,556,21,3562,2,13,11,11,2,393,245,209,2,2124,2113,2103,2,16,17,15,2,1114,32,964,2,1702,3375,1472,2
0.108,1861,1985,2065,1,1921,2026,2063,1,1903,2030,2041,1,392,245,202,1,2142,2130,2122,1,1833,1759,2033,1,2031,2027,2052,1,2060,2064,2057,1
0.109,1099,999,3417,2,525,21,3617,2,11,11,11,2,396,245,210,2,2126,2113,2105,2,17,17,15,2,1051,32,1037,2,1490,3375,1442,2
0.11,1840,1976,2062,1,1917,2025,2063,1,1898,2027,2041,1,398,248,203,1,2144,2132,2122,1,1746,1716,2032,1,2031,2025,2052,1,2060,2066,2057,1
0.111,1099,1046,3409,2,525,18,3607,2,11,11,11,2,396,245,210,2,2126,2114,2105,2,17,16,15,2,1051,28,1014,2,1490,3234,1541,2
0.112,1836,1980,2065,1,1917,2026,2063,1,1897,2029,2041,1,398,247,203,1,2143,2131,2122,1,1730,1737,2032,1,2028,2027,2052,1,2059,2066,2057,1
0.113,1141,1044,3409,2,539,17,3607,2,9,11,11,2,395,246,210,2,2128,2115,2105,2,19,15,15,2,1026,26,1014,2,1847,3487,1541,2
0.114,1837,1980,2064,1,1916,2026,2063,1,1896,2029,2041,1,397,247,203,1,2143,2131,2122,1,1742,1737,2032,1,2030,2027,2051,1,2059,2066,2057,1
0.115,1232,1044,3298,2,584,17,3525,2,11,11,11,2,395,246,212,2,2128,2115,2107,2,18,15,15,2,1137,26,1312,2,1602,3487,1434,2
0.116,1837,1975,2064,1,1916,2025,2064,1,1896,2028,2041,1,397,249,204,1,2143,2131,2122,1,1742,1746,2032,1,2030,2027,2051,1,2059,2065,2057,1
0.117,929,1042,3214,2,443,16,3463,2,10,11,11,2,400,247,213,2,2129,2116,2106,2,16,15,15,2,859,24,1035,2,2156,3666,1553,2
0.118,1838,1969,2065,1,1915,2024,2065,1,1896,2027,2041,1,397,252,204,1,2144,2134,2124,1,1754,1708,2034,1,2032,2023,2053,1,2059,2065,2057,1
0.119,1190,987,3430,2,564,21,3617,2,9,11,10,2,392,252,212,2,2126,2119,2107,2,15,14,15,2,1128,32,1250,2,1828,3761,1457,2
0.12,1853,1989,2064,1,1919,2027,2065,1,1900,2032,2041,1,394,246,204,1,2143,2131,2123,1,1821,1790,2034,1,2038,2029,2052,1,2059,2063,2057,1
0.121,1486,1109,3381,2,698,19,3577,2,8,11,10,2,384,245,212,2,2123,2114,2106,2,15,13,14,2,1054,28,1101,2,2067,3351,1559,2
0.122,1833,1977,2062,1,1914,2025,2066,1,1896,2029,2041,1,400,251,204,1,2145,2134,2121,1,1733,1732,2031,1,2027,2023,2049,1,2060,2064,2057,1
0.123,1140,1069,3104,2,540,18,3537,2,10,11,10,2,394,248,212,2,2126,2116,2105,2,15,14,14,2,1054,26,1032,2,2067,3569,1566,2
0.124,1844,1950,2064,1,1917,2020,2069,1,1898,2029,2041,1,395,252,204,1,2143,2134,2124,1,1774,1744,2034,1,2031,2024,2052,1,2059,2063,2057,1
0.125,1008,1069,3329,2,479,18,3537,2,11,11,10,2,399,248,212,2,2128,2116,2105,2,17,14,14,2,954,26,1032,2,2246,3569,1566,2
0.126,1844,1973,2064,1,1917,2025,2072,1,1898,2029,2041,1,395,252,204,1,2143,2134,2125,1,1774,1744,2035,1,2031,2024,2053,1,2059,2063,2056,1
0.127,1008,1127,3370,2,479,15,3563,2,11,10,10,2,399,244,212,2,2128,2113,2104,2,17,13,14,2,954,21,1038,2,2246,3333,1641,2
0.128,1837,1978,2064,1,1914,2025,2072,1,1895,2030,2041,1,396,250,204,1,2145,2133,2125,1,1753,1752,2035,1,2029,2024,2053,1,2062,2064,2056,1
0.129,1048,1130,3370,2,497,15,3563,2,13,10,10,2,400,244,212,2,2127,2113,2104,2,17,13,14,2,974,21,1038,2,2288,3557,1641,2
0.13,1841,1978,2063,1,1916,2025,2074,1,1897,2030,2041,1,395,250,204,1,2144,2133,2125,1,1761,1752,2035,1,2028,2024,2051,1,2059,2064,2056,1
0.131,1122,1130,3342,2,534,15,3539,2,14,10,10,2,398,244,212,2,2126,2113,2103,2,16,13,13,2,1056,21,1006,2,1952,3557,1615,2
0.132,1841,1973,2063,1,1916,2024,2075,1,1897,2029,2041,1,395,251,203,1,2144,2132,2123,1,1761,1752,2034,1,2028,2023,2050,1,2059,2063,2056,1
0.133,845,1135,3288,2,404,15,3497,2,12,10,10,2,402,245,212,2,2127,2113,2102,2,16,13,13,2,798,21,875,2,2430,3716,1690,2
0.134,1851,1965,2064,1,1920,2022,2077,1,1900,2026,2041,1,392,253,203,1,2142,2134,2124,1,1797,1707,2036,1,2031,2019,2051,1,2057,2064,2056,1
0.135,980,1085,3489,2,467,18,3645,2,10,9,9,2,397,249,211,2,2125,2116,2104,2,16,14,14,2,938,28,1149,2,2062,3807,1582,2
0.136,1864,1986,2063,1,1923,2025,2075,1,1902,2031,2041,1,386,245,202,1,2140,2129,2122,1,1859,1788,2034,1,2039,2025,2048,1,2058,2062,2056,1
0.137,1258,1203,3332,2,593,16,3524,2,10,9,9,2,392,243,211,2,2123,2112,2102,2,16,14,14,2,1216,25,870,2,1815,3372,1657,2
0.138,1842,1981,2061,1,1917,2025,2074,1,1897,2029,2041,1,393,246,202,1,2142,2130,2120,1,1761,1757,2033,1,2029,2023,2050,1,2060,2064,2056,1
0.139,968,1173,3149,2,459,16,3385,2,9,9,9,2,397,245,212,2,2124,2113,2101,2,14,14,13,2,933,24,935,2,2258,3585,1638,2
0.14,1852,1950,2064,1,1920,2022,2075,1,1899,2026,2041,1,389,248,202,1,2140,2131,2121,1,1801,1754,2033,1,2033,2023,2050,1,2059,2064,2056,1
0.141,1140,1013,3372,2,540,18,3551,2,9,10,10,2,392,249,212,2,2122,2114,2103,2,12,14,13,2,1101,28,935,2,1954,3398,1638,2
0.142,1845,1973,2064,1,1917,2022,2073,1,1897,2026,2041,1,391,248,201,1,2141,2131,2122,1,1779,1754,2034,1,2032,2023,2051,1,2059,2064,2056,1
0.143,1077,1146,3463,2,511,18,3615,2,8,10,10,2,393,249,212,2,2123,2114,2104,2,12,14,12,2,1041,28,1037,2,1772,3398,1615,2
0.144,1845,1978,2065,1,1917,2023,2071,1,1897,2026,2041,1,391,246,201,1,2141,2130,2122,1,1779,1757,2034,1,2032,2024,2051,1,2059,2063,2056,1
0.145,1077,1190,3458,2,511,17,3608,2,8,10,10,2,393,248,212,2,2123,2115,2105,2,12,13,12,2,1041,26,1023,2,1772,3261,1687,2
0.146,1851,1975,2065,1,1918,2024,2071,1,1898,2026,2041,1,388,248,201,1,2141,2131,2122,1,1769,1735,2034,1,2033,2024,2051,1,2061,2065,2056,1
0.147,1122,1184,3458,2,532,16,3608,2,11,10,10,2,396,249,212,2,2126,2116,2105,2,12,14,12,2,1024,25,1023,2,2082,3495,1687,2
0.148,1857,1994,2065,1,1919,2027,2069,1,1899,2030,2041,1,386,241,201,1,2141,2127,2122,1,1809,1810,2034,1,2037,2030,2050,1,2060,2063,2056,1
0.149,1200,1184,3370,2,570,16,3539,2,11,10,10,2,396,249,213,2,2126,2116,2106,2,14,14,13,2,1123,25,1334,2,1852,3495,1683,2
0.15,1836,1985,2063,1,1915,2025,2066,1,1896,2028,2041,1,395,245,202,1,2143,2130,2121,1,1723,1766,2031,1,2028,2028,2049,1,2060,2064,2056,1
0.151,905,1182,3297,2,432,16,3481,2,10,10,10,2,400,249,213,2,2127,2116,2105,2,12,14,13,2,847,23,1071,2,2343,3645,1750,2
0.152,1848,1964,2065,1,1918,2021,2066,1,1899,2023,2041,1,393,253,202,1,2143,2135,2123,1,1784,1681,2034,1,2034,2028,2051,1,2059,2064,2056,1
0.153,1151,1121,3493,2,546,21,3631,2,9,10,10,2,393,253,213,2,2124,2119,2107,2,10,14,13,2,1100,31,1284,2,2041,3710,1662,2
0.154,1880,1984,2064,1,1921,2025,2065,1,1902,2028,2041,1,393,246,202,1,2144,2131,2123,1,1771,1764,2033,1,2032,2028,2050,1,2058,2064,2056,1
0.155,1431,1250,3387,2,673,19,3545,2,8,10,10,2,386,246,213,2,2122,2114,2105,2,9,14,13,2,1358,28,1035,2,2233,3313,1725,2
0.156,1855,1988,2064,1,1921,2026,2065,1,1902,2029,2041,1,393,245,202,1,2144,2131,2123,1,1771,1779,2033,1,2032,2029,2050,1,2058,2063,2056,1
0.157,1095,1207,3157,2,517,18,3367,2,8,10,10,2,393,249,212,2,2125,2116,2104,2,11,14,13,2,1042,26,1009,2,2233,3483,1716,2
0.158,1850,1988,2064,1,1919,2026,2064,1,1900,2029,2041,1,392,245,202,1,2143,2131,2124,1,1763,1779,2034,1,2032,2029,2051,1,2058,2063,2056,1
0.159,966,1207,3373,2,458,18,3533,2,8,10,10,2,396,249,212,2,2126,2116,2104,2,14,14,13,2,933,26,1009,2,2363,3483,1716,2
0.16,1850,1983,2064,1,1919,2027,2065,1,1900,2028,2041,1,392,246,202,1,2143,2132,2124,1,1763,1768,2033,1,2032,2028,2050,1,2058,2062,2055,1
0.161,966,1264,3419,2,458,16,3566,2,8,11,10,2,396,245,212,2,2126,2112,2104,2,14,13,13,2,933,21,1037,2,2363,3224,1766,2
0.162,1860,1976,2064,1,1923,2026,2065,1,1903,2027,2041,1,390,249,202,1,2143,2134,2124,1,1763,1730,2033,1,2021,2025,2050,1,2058,2064,2055,1
0.163,1007,1265,3419,2,478,15,3566,2,11,21,10,2,398,245,212,2,2126,2112,2104,2,14,14,13,2,964,21,1037,2,2377,3387,1766,2
0.164,1869,1994,2064,1,1926,2029,2066,1,1906,2032,2041,1,388,242,202,1,2142,2130,2123,1,1820,1805,2033,1,2028,2031,2050,1,2057,2062,2055,1
0.165,1076,1265,3404,2,511,15,3551,2,10,21,12,2,396,245,212,2,2125,2112,2104,2,15,14,13,2,1039,21,1014,2,2090,3387,1741,2
0.166,1844,1982,2063,1,1919,2028,2067,1,1901,2029,2042,1,397,246,203,1,2145,2133,2121,1,1736,1751,2030,1,2023,2027,2049,1,2060,2064,2055,1
0.167,1076,1205,3354,2,511,18,3509,2,10,56,15,2,396,249,212,2,2125,2112,2103,2,15,13,13,2,1039,19,891,2,2090,2997,1789,2
0.168,1851,1957,2065,1,1921,2023,2070,1,1902,2024,2042,1,393,247,202,1,2142,2132,2123,1,1771,1755,2033,1,2027,2026,2051,1,2059,2064,2055,1
0.169,1225,1166,3538,2,581,22,3653,2,9,79,14,2,391,253,211,2,2123,2115,2105,2,12,14,12,2,1189,28,1166,2,1893,3181,1710,2
0.17,1843,1978,2064,1,1919,2027,2071,1,1901,2030,2041,1,396,247,201,1,2143,2132,2123,1,1752,1755,2035,1,2026,2026,2052,1,2059,2064,2056,1
0.171,1423,1301,3390,2,670,19,3533,2,8,103,22,2,385,245,211,2,2120,2111,2103,2,10,14,12,2,1389,26,891,2,1765,2916,1766,2
0.172,1843,1984,2064,1,1919,2028,2073,1,1901,2031,2042,1,396,245,202,1,2143,2130,2123,1,1752,1763,2035,1,2026,2026,2052,1,2059,2063,2055,1
0.173,1081,1271,3215,2,512,18,3394,2,10,128,32,2,395,247,212,2,2124,2112,2101,2,12,13,12,2,1054,25,956,2,2152,3127,1754,2
0.174,1847,1982,2064,1,1921,2028,2073,1,1903,2031,2042,1,398,246,202,1,2144,2130,2123,1,1755,1749,2035,1,2028,2025,2052,1,2060,2064,2055,1
0.175,1215,1100,3422,2,577,21,3557,2,12,181,27,2,393,249,212,2,2123,2112,2103,2,11,14,12,2,1185,42,956,2,1946,3026,1754,2
0.176,1852,1982,2063,1,1922,2028,2075,1,1904,2031,2041,1,396,246,202,1,2144,2130,2122,1,1785,1749,2035,1,2031,2025,2055,1,2059,2064,2056,1
0.177,1127,1244,3503,2,537,19,3619,2,11,181,30,2,396,249,212,2,2125,2112,2104,2,13,14,12,2,1100,42,1071,2,1829,3026,1737,2
0.178,1832,1980,2062,1,1916,2028,2076,1,1900,2031,2041,1,403,247,202,1,2147,2131,2121,1,1708,1736,2033,1,2023,2023,2053,1,2061,2065,2056,1
0.179,1127,1288,3496,2,537,18,3611,2,11,235,33,2,396,248,212,2,2125,2113,2105,2,13,13,12,2,1100,62,1069,2,1829,2929,1790,2
0.18,1843,1965,2064,1,1918,2025,2078,1,1901,2028,2041,1,397,253,201,1,2145,2135,2123,1,1757,1670,2035,1,2029,2017,2055,1,2061,2065,2056,1
0.181,1146,1280,3496,2,541,17,3611,2,9,261,33,2,394,249,212,2,2126,2115,2105,2,13,13,12,2,1058,71,1069,2,2067,3094,1790,2
0.182,1868,1985,2064,1,1925,2029,2078,1,1906,2033,2041,1,387,246,201,1,2141,2130,2122,1,1756,1759,2035,1,2028,2024,2053,1,2061,2063,2056,1
0.183,1220,1280,3409,2,578,17,3540,2,12,261,45,2,394,249,213,2,2126,2115,2105,2,13,13,12,2,1149,71,1380,2,1902,3094,1787,2
0.184,1845,1975,2062,1,1920,2026,2077,1,1902,2030,2041,1,396,250,203,1,2144,2133,2123,1,1756,1715,2034,1,2028,2021,2052,1,2061,2065,2056,1
0.185,920,1275,3338,2,439,16,3482,2,11,293,54,2,399,250,213,2,2127,2116,2104,2,11,14,12,2,864,84,1158,2,2257,3198,1835,2
0.186,1840,1975,2063,1,1918,2026,2077,1,1899,2030,2041,1,396,250,203,1,2144,2133,2123,1,1740,1715,2034,1,2027,2021,2052,1,2062,2065,2056,1
0.187,1065,1203,3524,2,508,19,3632,2,10,318,44,2,395,254,213,2,2125,2119,2106,2,10,14,12,2,1016,80,1357,2,2040,3246,1771,2
0.188,1840,1981,2063,1,1918,2027,2077,1,1899,2031,2041,1,396,248,203,1,2144,2133,2123,1,1740,1741,2035,1,2027,2024,2053,1,2062,2064,2056,1
0.189,1375,1340,3420,2,649,18,3544,2,13,358,56,2,390,246,213,2,2124,2114,2104,2,11,13,12,2,1307,135,1151,2,2178,2960,1817,2
0.19,1846,1979,2063,1,1918,2027,2077,1,1899,2030,2041,1,393,250,203,1,2144,2134,2123,1,1750,1731,2035,1,2030,2023,2053,1,2063,2065,2056,1
0.191,1057,1290,3197,2,500,18,3364,2,11,381,63,2,396,249,212,2,2127,2116,2104,2,13,13,12,2,1008,130,1156,2,2178,3079,1810,2
0.192,1852,1997,2063,1,1920,2030,2076,1,1900,2033,2041,1,391,243,203,1,2143,2130,2123,1,1788,1809,2035,1,2034,2029,2052,1,2062,2063,2056,1
0.193,955,1290,3404,2,455,18,3531,2,10,381,63,2,396,249,212,2,2125,2116,2104,2,10,13,12,2,920,130,1156,2,2271,3079,1810,2
0.194,1833,1989,2063,1,1915,2029,2074,1,1896,2031,2041,1,397,247,204,1,2146,2132,2122,1,1711,1774,2032,1,2027,2027,2050,1,2064,2064,2056,1
0.195,955,1346,3447,2,455,15,3563,2,10,444,63,2,396,246,212,2,2125,2113,2104,2,10,13,13,2,920,181,1193,2,2271,2892,1847,2
0.196,1854,1970,2065,1,1921,2024,2074,1,1901,2026,2041,1,391,253,204,1,2143,2137,2124,1,1796,1691,2034,1,2034,2022,2053,1,2061,2065,2056,1
0.197,1007,1344,3447,2,478,15,3563,2,12,470,63,2,398,245,212,2,2125,2113,2104,2,13,13,13,2,964,196,1193,2,2281,3008,1847,2
0.198,1878,1989,2065,1,1928,2027,2072,1,1907,2030,2041,1,384,245,204,1,2144,2132,2123,1,1778,1773,2033,1,2033,2028,2051,1,2061,2063,2056,1
0.199,1083,1344,3428,2,515,15,3547,2,11,470,72,2,395,245,212,2,2123,2113,2104,2,11,13,13,2,1044,196,1206,2,2075,3008,1829,2
0.2,1852,1994,2065,1,1921,2027,2070,1,1901,2030,2041,1,392,242,203,1,2144,2129,2123,1,1778,1796,2034,1,2033,2030,2052,1,2061,2062,2056,1
0.201,816,1344,3381,2,390,15,3507,2,10,501,80,2,401,246,212,2,2126,2113,2103,2,13,13,13,2,789,211,1131,2,2344,3078,1868,2
0.202,1846,1992,2065,1,1920,2027,2070,1,1902,2029,2041,1,395,242,203,1,2143,2129,2123,1,1759,1789,2034,1,2031,2030,2052,1,2060,2064,2056,1
0.203,1041,1283,3559,2,495,20,3652,2,9,521,62,2,395,251,212,2,2124,2116,2105,2,12,13,13,2,1018,191,1353,2,2124,3105,1810,2
0.204,1849,1992,2064,1,1921,2027,2067,1,1902,2029,2041,1,394,242,202,1,2142,2129,2122,1,1768,1789,2033,1,2031,2030,2053,1,2058,2064,2056,1
0.205,1298,1411,3475,2,614,19,3580,2,12,565,76,2,391,245,212,2,2122,2112,2104,2,12,13,13,2,1279,279,1243,2,1974,2840,1850,2
0.206,1849,1979,2064,1,1921,2024,2067,1,1902,2026,2041,1,394,246,202,1,2142,2130,2121,1,1768,1773,2032,1,2031,2037,2052,1,2058,2065,2056,1
0.207,994,1369,3290,2,472,18,3427,2,10,584,105,2,398,248,213,2,2125,2114,2102,2,14,13,12,2,980,265,1273,2,2213,2939,1840,2
0.208,1857,1970,2065,1,1923,2022,2067,1,1904,2024,2041,1,391,250,202,1,2141,2133,2123,1,1804,1723,2035,1,2034,2031,2055,1,2057,2065,2056,1
0.209,1153,1181,3476,2,547,22,3580,2,10,623,83,2,393,250,212,2,2123,2114,2104,2,12,13,12,2,1137,297,1273,2,2040,2805,1840,2
0.21,1869,1990,2063,1,1926,2026,2066,1,1907,2029,2041,1,388,243,202,1,2140,2129,2121,1,1865,1799,2033,1,2040,2034,2051,1,2057,2063,2056,1
0.211,1088,1327,3539,2,519,20,3629,2,12,623,79,2,396,250,212,2,2125,2114,2105,2,12,13,13,2,1068,297,1351,2,1934,2805,1828,2
0.212,1845,1984,2061,1,1920,2026,2066,1,1901,2028,2041,1,394,246,202,1,2142,2131,2119,1,1770,1767,2033,1,2031,2031,2052,1,2060,2064,2056,1
0.213,1088,1365,3527,2,519,19,3617,2,12,670,83,2,396,249,212,2,2125,2114,2106,2,12,13,14,2,1068,328,1346,2,1934,2706,1866,2
0.214,1854,1954,2063,1,1922,2024,2068,1,1902,2027,2041,1,389,250,201,1,2141,2131,2121,1,1810,1762,2033,1,2035,2029,2052,1,2060,2063,2056,1
0.215,1136,1351,3527,2,538,17,3617,2,11,687,83,2,394,249,212,2,2125,2115,2106,2,9,14,14,2,1046,323,1346,2,2080,2815,1866,2
0.216,1854,1976,2064,1,1922,2024,2069,1,1902,2027,2041,1,389,250,201,1,2141,2131,2122,1,1810,1762,2034,1,2035,2029,2052,1,2060,2063,2057,1
0.217,1230,1351,3424,2,584,17,3532,2,12,687,106,2,393,249,213,2,2125,2115,2106,2,9,14,14,2,1160,323,1565,2,1957,2815,1824,2
0.218,1848,1979,2064,1,1921,2025,2069,1,1902,2028,2041,1,392,249,201,1,2142,2132,2122,1,1780,1763,2034,1,2031,2029,2052,1,2060,2065,2057,1
0.219,928,1336,3347,2,443,17,3467,2,10,708,121,2,398,250,214,2,2127,2116,2105,2,9,13,14,2,876,318,1392,2,2204,2882,1871,2
0.22,1851,1979,2064,1,1922,2025,2072,1,1902,2028,2041,1,391,249,203,1,2142,2132,2123,1,1787,1763,2034,1,2032,2029,2052,1,2059,2065,2057,1
0.221,1194,1252,3530,2,568,21,3620,2,11,712,93,2,394,254,213,2,2125,2119,2107,2,9,13,13,2,1155,250,1539,2,2046,2909,1834,2
0.222,1851,1971,2063,1,1922,2024,2072,1,1902,2027,2041,1,391,252,203,1,2142,2133,2123,1,1787,1759,2033,1,2032,2035,2051,1,2059,2062,2057,1
0.223,1504,1397,3482,2,708,19,3577,2,12,762,104,2,388,246,213,2,2124,2114,2106,2,13,13,12,2,1086,384,1451,2,2135,2707,1873,2
0.224,1860,1964,2064,1,1924,2022,2074,1,1904,2026,2041,1,387,255,203,1,2141,2136,2125,1,1826,1707,2035,1,2037,2027,2053,1,2059,2062,2057,1
0.225,1153,1337,3233,2,545,19,3530,2,12,770,119,2,397,249,212,2,2127,2116,2104,2,13,13,12,2,1086,336,1427,2,2135,2789,1876,2
0.226,1875,1985,2063,1,1929,2026,2073,1,1908,2031,2041,1,385,246,203,1,2141,2132,2124,1,1891,1788,2034,1,2043,2031,2052,1,2058,2061,2057,1
0.227,1022,1337,3427,2,484,19,3530,2,9,770,119,2,397,249,212,2,2127,2116,2104,2,15,13,12,2,990,336,1427,2,2201,2789,1876,2
0.228,1851,1979,2061,1,1922,2026,2073,1,1902,2030,2041,1,392,249,203,1,2144,2134,2124,1,1790,1753,2035,1,2033,2028,2053,1,2061,2063,2057,1
0.229,1022,1390,3460,2,484,16,3555,2,9,823,116,2,397,245,212,2,2127,2113,2104,2,15,13,12,2,990,403,1439,2,2201,2656,1904,2
0.23,1841,1984,2063,1,1920,2027,2075,1,1901,2031,2041,1,397,247,202,1,2145,2133,2124,1,1744,1773,2035,1,2029,2029,2053,1,2061,2064,2057,1
0.231,1071,1384,3460,2,507,16,3555,2,12,842,116,2,399,246,212,2,2126,2113,2104,2,16,13,12,2,1007,406,1439,2,2205,2735,1904,2
0.232,1841,1984,2063,1,1921,2027,2076,1,1902,2031,2042,1,398,247,202,1,2145,2133,2124,1,1744,1773,2036,1,2028,2029,2052,1,2059,2064,2057,1
0.233,1150,1384,3426,2,547,16,3526,2,13,842,129,2,398,246,212,2,2125,2113,2103,2,16,13,12,2,1102,406,1442,2,2061,2735,1894,2
0.234,1841,1982,2063,1,1921,2026,2075,1,1902,2030,2042,1,398,246,201,1,2145,2131,2122,1,1744,1770,2036,1,2028,2027,2052,1,2059,2063,2057,1
0.235,867,1378,3372,2,415,16,3480,2,11,863,141,2,402,247,212,2,2126,2113,2102,2,13,13,12,2,832,410,1371,2,2251,2783,1922,2
0.236,1854,1977,2063,1,1924,2025,2075,1,1904,2029,2042,1,391,248,201,1,2142,2132,2122,1,1755,1742,2036,1,2029,2025,2052,1,2060,2065,2057,1
0.237,1110,1305,3552,2,530,21,3632,2,13,865,108,2,398,252,212,2,2125,2116,2104,2,14,13,12,2,1084,338,1533,2,2096,2800,1881,2
0.238,1862,1995,2063,1,1925,2028,2075,1,1905,2033,2042,1,388,241,201,1,2141,2128,2122,1,1805,1816,2036,1,2035,2031,2052,1,2060,2063,2057,1
0.239,1381,1445,3403,2,650,19,3502,2,12,916,142,2,391,246,212,2,2123,2112,2102,2,15,14,12,2,1363,495,1383,2,1993,2616,1909,2
0.24,1841,1986,2062,1,1919,2026,2073,1,1900,2031,2042,1,394,245,201,1,2143,2131,2120,1,1726,1769,2033,1,2027,2027,2050,1,2062,2064,2057,1
0.241,1059,1394,3225,2,500,18,3351,2,10,922,182,2,396,248,212,2,2124,2114,2103,2,12,13,12,2,1042,449,1445,2,2158,2684,1903,2
0.242,1846,1964,2063,1,1921,2022,2073,1,1902,2025,2041,1,394,252,200,1,2143,2135,2122,1,1757,1769,2035,1,2031,2027,2053,1,2061,2063,2057,1
0.243,1233,1333,3429,2,583,20,3524,2,11,941,141,2,393,252,212,2,2123,2115,2103,2,10,14,12,2,1217,483,1445,2,2036,2596,1903,2
0.244,1881,1984,2062,1,1924,2026,2071,1,1904,2030,2041,1,390,246,200,1,2142,2131,2121,1,1762,1769,2034,1,2031,2027,2051,1,2060,2063,2057,1
0.245,1164,1333,3506,2,553,20,3586,2,10,941,130,2,394,252,213,2,2124,2115,2105,2,9,14,13,2,1146,483,1508,2,1954,2596,1895,2
0.246,1857,1989,2062,1,1924,2026,2071,1,1904,2031,2041,1,390,245,200,1,2142,2130,2121,1,1762,1783,2034,1,2031,2028,2051,1,2060,2063,2057,1
0.247,1164,1374,3497,2,553,18,3576,2,10,980,134,2,394,251,213,2,2124,2115,2105,2,9,14,13,2,1146,518,1505,2,1954,2525,1922,2
0.248,1853,1989,2062,1,1924,2026,2070,1,1904,2031,2041,1,393,245,201,1,2143,2130,2122,1,1762,1783,2035,1,2031,2028,2050,1,2059,2063,2056,1
0.249,1215,1359,3497,2,573,17,3576,2,10,992,134,2,395,252,213,2,2126,2116,2105,2,12,14,13,2,1097,488,1505,2,2057,2598,1922,2
0.25,1853,1983,2062,1,1924,2024,2069,1,1904,2029,2041,1,393,246,201,1,2143,2130,2122,1,1762,1772,2034,1,2031,2027,2049,1,2059,2062,2056,1
0.251,1303,1495,3446,2,615,15,3530,2,13,1040,148,2,393,246,212,2,2125,2113,2104,2,11,14,13,2,1217,642,1469,2,1974,2455,1941,2
0.252,1864,1976,2062,1,1926,2023,2069,1,1906,2027,2041,1,389,250,201,1,2143,2132,2122,1,1766,1735,2034,1,2021,2025,2049,1,2060,2064,2056,1
0.253,980,1398,3357,2,465,14,3455,2,11,1028,170,2,400,251,212,2,2128,2116,2103,2,14,14,14,2,921,522,1403,2,2149,2543,1961,2
0.254,1872,1994,2062,1,1927,2027,2069,1,1908,2031,2041,1,387,244,201,1,2143,2129,2122,1,1827,1810,2034,1,2031,2031,2049,1,2060,2063,2057,1
0.255,1144,1290,3537,2,541,19,3610,2,10,1012,131,2,396,257,212,2,2127,2120,2105,2,15,14,14,2,1103,382,1559,2,2042,2591,1923,2
0.256,1848,1975,2061,1,1921,2024,2069,1,1903,2026,2041,1,394,252,202,1,2146,2135,2121,1,1744,1720,2030,1,2026,2025,2048,1,2062,2065,2057,1
0.257,1499,1438,3484,2,703,17,3562,2,11,1065,145,2,387,249,211,2,2125,2115,2105,2,10,14,14,2,1064,568,1526,2,2102,2471,1943,2
0.258,1854,1951,2063,1,1923,2019,2071,1,1906,2026,2041,1,394,252,202,1,2146,2135,2123,1,1784,1742,2033,1,2032,2026,2051,1,2061,2064,2057,1
0.259,1156,1368,3414,2,545,17,3504,2,11,1059,168,2,393,252,211,2,2125,2116,2103,2,10,13,12,2,1064,481,1552,2,2102,2540,1938,2
0.26,1848,1975,2064,1,1921,2024,2071,1,1904,2026,2041,1,396,252,202,1,2147,2135,2124,1,1766,1742,2035,1,2032,2026,2051,1,2061,2064,2057,1
0.261,1050,1368,3414,2,499,17,3504,2,12,1059,168,2,395,252,211,2,2124,2116,2103,2,8,13,12,2,999,481,1552,2,2146,2540,1938,2
0.262,1848,1982,2064,1,1921,2027,2072,1,1904,2029,2041,1,396,249,202,1,2147,2133,2124,1,1766,1758,2035,1,2032,2027,2051,1,2061,2063,2057,1
0.263,1050,1416,3448,2,499,15,3531,2,12,1101,162,2,395,250,211,2,2124,2114,2103,2,8,13,12,2,999,553,1570,2,2146,2463,1955,2
0.264,1854,1979,2064,1,1924,2027,2072,1,1906,2029,2041,1,395,250,202,1,2145,2134,2124,1,1765,1745,2035,1,2030,2027,2051,1,2059,2064,2057,1
0.265,1111,1407,3448,2,524,15,3531,2,12,1111,162,2,393,250,211,2,2123,2114,2103,2,10,14,12,2,1019,547,1570,2,2151,2522,1955,2
0.266,1859,1997,2064,1,1925,2029,2073,1,1907,2033,2041,1,393,243,202,1,2144,2130,2124,1,1801,1819,2035,1,2034,2032,2051,1,2059,2062,2057,1
0.267,1194,1407,3414,2,563,15,3501,2,11,1111,176,2,392,250,212,2,2123,2114,2103,2,13,14,12,2,1131,547,1731,2,2053,2522,1946,2
0.268,1839,1990,2063,1,1919,2029,2073,1,1902,2032,2041,1,400,246,202,1,2146,2131,2122,1,1724,1783,2033,1,2028,2029,2050,1,2062,2064,2057,1
0.269,902,1400,3360,2,429,15,3455,2,10,1124,190,2,398,250,212,2,2124,2114,2102,2,11,13,12,2,852,543,1636,2,2184,2557,1965,2
0.27,1860,1971,2065,1,1925,2026,2076,1,1907,2028,2041,1,392,252,202,1,2142,2135,2123,1,1808,1699,2035,1,2035,2022,2052,1,2059,2065,2057,1
0.271,1054,1317,3542,2,502,19,3613,2,12,1112,145,2,396,255,212,2,2124,2117,2104,2,11,14,12,2,1016,431,1730,2,2077,2571,1935,2
0.272,1885,1989,2064,1,1932,2029,2076,1,1912,2032,2041,1,391,245,202,1,2142,2130,2122,1,1785,1779,2035,1,2031,2028,2051,1,2059,2063,2057,1
0.273,1366,1465,3392,2,643,16,3478,2,13,1168,187,2,388,248,212,2,2121,2113,2102,2,10,14,12,2,1317,639,1598,2,2119,2445,1955,2
0.274,1861,1995,2064,1,1927,2032,2076,1,1908,2033,2041,1,391,243,202,1,2142,2129,2122,1,1785,1800,2035,1,2031,2029,2051,1,2059,2063,2057,1
0.275,1053,1410,3210,2,499,16,3321,2,12,1165,238,2,395,251,213,2,2123,2115,2104,2,9,14,12,2,1013,568,1625,2,2119,2492,1950,2
0.276,1856,1995,2063,1,1926,2032,2077,1,1907,2033,2041,1,392,243,202,1,2142,2129,2122,1,1770,1800,2036,1,2028,2029,2052,1,2057,2063,2056,1
0.277,951,1449,3417,2,452,16,3501,2,9,1191,185,2,397,249,213,2,2125,2114,2104,2,11,14,12,2,932,631,1625,2,2151,2507,1950,2
0.278,1856,1989,2063,1,1926,2031,2078,1,1907,2032,2041,1,392,245,202,1,2142,2130,2122,1,1770,1786,2036,1,2028,2027,2051,1,2057,2063,2056,1
0.279,975,1449,3497,2,464,16,3569,2,8,1191,166,2,396,249,214,2,2125,2114,2106,2,10,14,14,2,958,631,1660,2,2061,2507,1945,2
0.28,1859,1984,2063,1,1927,2031,2078,1,1908,2031,2041,1,392,247,202,1,2143,2131,2122,1,1771,1758,2036,1,2029,2025,2051,1,2060,2064,2056,1
0.281,975,1442,3489,2,464,16,3560,2,8,1214,169,2,396,251,214,2,2125,2115,2106,2,10,14,14,2,958,661,1655,2,2061,2419,1963,2
0.282,1867,2000,2063,1,1929,2034,2079,1,1909,2035,2041,1,389,241,202,1,2141,2128,2122,1,1812,1827,2035,1,2032,2031,2050,1,2059,2062,2056,1
0.283,1144,1411,3489,2,540,16,3560,2,11,1216,169,2,394,252,214,2,2126,2116,2106,2,10,14,14,2,1009,612,1655,2,2090,2458,1963,2
0.284,1847,1984,2061,1,1924,2032,2079,1,1904,2031,2041,1,395,248,203,1,2143,2132,2121,1,1731,1754,2032,1,2023,2025,2049,1,2061,2064,2056,1
0.285,1262,1544,3438,2,594,14,3513,2,12,1268,186,2,393,245,214,2,2126,2112,2105,2,12,14,14,2,1172,802,1627,2,2023,2351,1975,2
0.286,1868,1965,2063,1,1930,2027,2081,1,1909,2026,2041,1,389,256,204,1,2140,2137,2124,1,1824,1679,2035,1,2032,2024,2052,1,2059,2063,2056,1
0.287,956,1436,3350,2,452,14,3438,2,11,1245,211,2,398,250,214,2,2127,2115,2104,2,10,14,13,2,888,643,1574,2,2135,2405,1989,2
0.288,1894,1985,2062,1,1931,2030,2080,1,1910,2030,2041,1,391,248,205,1,2142,2133,2123,1,1795,1764,2034,1,2029,2024,2051,1,2058,2063,2056,1
0.289,1138,1317,3531,2,539,18,3597,2,12,1216,162,2,396,256,213,2,2127,2119,2106,2,12,14,13,2,1093,465,1689,2,2056,2434,1963,2
0.29,1868,1990,2062,1,1931,2030,2080,1,1910,2031,2041,1,391,246,204,1,2142,2132,2124,1,1795,1782,2035,1,2029,2026,2052,1,2058,2063,2056,1
0.291,1521,1468,3476,2,713,16,3546,2,14,1275,181,2,397,249,213,2,2127,2115,2105,2,21,14,15,2,1070,692,1663,2,2090,2348,1977,2
0.292,1859,1988,2062,1,1928,2029,2080,1,1908,2030,2041,1,395,246,204,1,2145,2132,2124,1,1779,1773,2035,1,2029,2026,2052,1,2059,2064,2056,1
0.293,1173,1524,3476,2,554,14,3546,2,14,1314,181,2,397,245,213,2,2127,2112,2105,2,21,14,15,2,1070,783,1663,2,2090,2312,1977,2
0.294,1861,1988,2062,1,1929,2029,2077,1,1909,2030,2041,1,394,246,204,1,2144,2132,2125,1,1794,1773,2035,1,2030,2026,2052,1,2057,2064,2057,1
0.295,1107,1524,3550,2,524,14,3609,2,12,1314,165,2,395,245,212,2,2125,2112,2104,2,29,14,35,2,1033,783,1718,2,2029,2312,1964,2
0.296,1841,1986,2062,1,1923,2027,2076,1,1904,2029,2041,1,399,248,204,1,2145,2133,2123,1,1716,1764,2033,1,2023,2026,2051,1,2060,2065,2057,1
0.297,1107,1504,3541,2,524,15,3599,2,12,1325,169,2,395,246,211,2,2125,2112,2104,2,29,14,47,2,1033,766,1721,2,2029,2297,1978,2
0.298,1848,1973,2063,1,1925,2023,2077,1,1906,2026,2041,1,398,252,204,1,2145,2136,2125,1,1756,1706,2036,1,2028,2022,2053,1,2059,2065,2057,1
0.299,1160,1471,3541,2,548,16,3599,2,12,1324,169,2,393,248,211,2,2125,2113,2104,2,55,14,47,2,1038,717,1721,2,2074,2349,1978,2
0.3,1868,1992,2062,1,1928,2025,2074,1,1909,2030,2041,1,390,245,204,1,2142,2131,2122,1,1842,1786,2034,1,2038,2028,2050,1,2061,2063,2057,1
0.301,1243,1592,3571,2,588,14,3624,2,14,1373,161,2,393,242,211,2,2125,2110,2104,2,85,14,71,2,1159,906,1746,2,2020,2271,1984,2
0.302,1846,1983,2060,1,1922,2022,2071,1,1905,2027,2041,1,398,248,202,1,2145,2133,2121,1,1760,1749,2033,1,2031,2026,2051,1,2061,2064,2057,1
0.303,937,1489,3464,2,446,14,3532,2,12,1347,197,2,398,246,212,2,2126,2113,2103,2,67,14,67,2,876,748,1693,2,2120,2326,1996,2
0.304,1838,1983,2062,1,1920,2022,2071,1,1904,2027,2041,1,401,248,202,1,2146,2133,2121,1,1742,1749,2033,1,2032,2026,2051,1,2062,2064,2057,1
0.305,1093,1376,3614,2,520,18,3665,2,14,1316,159,2,396,252,212,2,2126,2117,2105,2,106,15,116,2,1051,566,1778,2,2054,2357,1974,2
0.306,1838,1987,2062,1,1920,2021,2070,1,1904,2027,2041,1,401,246,202,1,2146,2131,2121,1,1742,1770,2033,1,2032,2029,2052,1,2062,2063,2057,1
0.307,1426,1517,3553,2,671,17,3608,2,21,1373,195,2,390,246,212,2,2124,2113,2105,2,170,15,119,2,1041,791,1754,2,2088,2287,1986,2
0.308,1845,1985,2062,1,1922,2020,2070,1,1905,2027,2041,1,396,248,202,1,2144,2131,2121,1,1754,1760,2033,1,2034,2028,2052,1,2062,2064,2057,1
0.309,1097,1443,3309,2,519,16,3550,2,19,1356,261,2,398,249,213,2,2127,2115,2105,2,137,15,152,2,1041,679,1758,2,2088,2329,1983,2
0.31,1851,1985,2062,1,1924,2020,2067,1,1907,2027,2041,1,395,248,202,1,2144,2131,2120,1,1784,1760,2032,1,2037,2028,2051,1,2061,2064,2057,1
0.311,995,1476,3484,2,473,16,3550,2,20,1378,261,2,400,249,213,2,2129,2115,2105,2,155,14,152,2,971,736,1758,2,2112,2351,1983,2
0.312,1834,1977,2062,1,1921,2020,2066,1,1904,2025,2041,1,401,251,204,1,2145,2133,2120,1,1711,1726,2031,1,2029,2027,2050,1,2061,2066,2056,1
0.313,1018,1476,3522,2,485,16,3582,2,25,1378,299,2,401,249,214,2,2130,2115,2106,2,176,14,185,2,1001,736,1771,2,2052,2351,1979,2
0.314,1845,1965,2064,1,1923,2019,2066,1,1905,2023,2041,1,395,255,203,1,2143,2136,2122,1,1759,1672,2033,1,2034,2024,2053,1,2061,2066,2057,1
0.315,1018,1455,3501,2,485,16,3561,2,25,1388,333,2,401,250,214,2,2130,2115,2106,2,176,15,189,2,1001,761,1763,2,2052,2298,1992,2
0.316,1870,1986,2064,1,1928,2024,2065,1,1909,2029,2041,1,386,248,203,1,2140,2131,2122,1,1843,1763,2033,1,2035,2029,2052,1,2062,2063,2057,1
0.317,1215,1413,3501,2,571,16,3561,2,36,1382,333,2,395,252,214,2,2128,2117,2106,2,211,15,189,2,696,680,1763,2,2130,2324,1992,2
0.318,1849,1977,2062,1,1922,2024,2065,1,1905,2027,2042,1,395,252,204,1,2143,2134,2122,1,1763,1725,2032,1,2035,2027,2051,1,2062,2065,2057,1
0.319,1350,1553,3480,2,635,14,3540,2,47,1438,373,2,393,246,214,2,2127,2113,2106,2,276,15,194,2,991,901,1758,2,2067,2254,2001,2
0.32,1847,1982,2064,1,1922,2029,2065,1,1905,2030,2042,1,396,251,204,1,2144,2134,2122,1,1749,1747,2032,1,2034,2029,2051,1,2062,2066,2057,1
0.321,1024,1478,3361,2,486,14,3436,2,40,1419,438,2,401,250,214,2,2129,2116,2104,2,211,15,146,2,767,773,1705,2,2129,2290,2010,2
0.322,1851,1982,2065,1,1924,2029,2066,1,1907,2030,2042,1,397,251,205,1,2145,2134,2123,1,1759,1747,2033,1,2034,2029,2051,1,2059,2066,2057,1
0.323,1114,1322,3537,2,531,18,3593,2,47,1369,421,2,398,257,214,2,2127,2119,2106,2,256,16,249,2,930,795,1787,2,2067,2254,1992,2
0.324,1851,1979,2064,1,1924,2033,2066,1,1907,2030,2042,1,397,253,205,1,2145,2134,2123,1,1759,1758,2034,1,2034,2029,2051,1,2059,2064,2057,1
0.325,1569,1476,3464,2,572,16,3526,2,54,1431,470,2,391,249,213,2,2124,2115,2105,2,283,16,221,2,1000,795,1762,2,2081,2254,2002,2
0.326,1854,1974,2065,1,1924,2035,2068,1,1907,2030,2042,1,397,254,205,1,2145,2136,2125,1,1772,1722,2037,1,2035,2026,2052,1,2059,2065,2057,1
0.327,1217,1525,3464,2,572,15,3526,2,54,1461,470,2,391,245,213,2,2124,2112,2105,2,283,14,221,2,1000,860,1762,2,2081,2229,2002,2
0.328,1870,1993,2064,1,1929,2041,2069,1,1911,2036,2042,1,391,247,204,1,2142,2131,2124,1,1836,1800,2036,1,2039,2031,2051,1,2058,2062,2057,1
0.329,1160,1525,3530,2,549,15,3583,2,56,1461,519,2,392,245,211,2,2124,2112,2104,2,293,14,283,2,1003,860,1801,2,2036,2229,1994,2
0.33,1852,1982,2062,1,1925,2041,2071,1,1908,2033,2042,1,399,251,205,1,2145,2134,2122,1,1752,1744,2033,1,2030,2027,2050,1,2059,2064,2057,1
0.331,1160,1498,3516,2,549,16,3570,2,56,1461,552,2,392,246,211,2,2124,2112,2104,2,293,16,290,2,1003,843,1801,2,2036,2219,2004,2
0.332,1863,1957,2064,1,1928,2042,2074,1,1911,2033,2042,1,395,251,205,1,2143,2132,2124,1,1795,1756,2036,1,2032,2028,2050,1,2058,2064,2057,1
0.333,1232,1459,3516,2,580,16,3570,2,67,1453,552,2,390,249,211,2,2123,2114,2104,2,324,16,290,2,1035,767,1801,2,2062,2251,2004,2
0.334,1863,1978,2064,1,1928,2042,2078,1,1911,2033,2042,1,395,251,202,1,2143,2132,2122,1,1795,1756,2037,1,2032,2028,2051,1,2058,2064,2057,1
0.335,1330,1591,3545,2,627,15,3595,2,78,1507,579,2,389,243,211,2,2122,2110,2104,2,395,15,328,2,1193,984,1820,2,2026,2200,2010,2
0.336,1857,1982,2064,1,1926,2042,2078,1,1909,2034,2042,1,395,249,202,1,2143,2131,2122,1,1778,1762,2037,1,2031,2027,2051,1,2061,2065,2057,1
0.337,1005,1563,3428,2,477,14,3492,2,62,1503,639,2,396,244,212,2,2124,2111,2103,2,299,15,256,2,903,936,1778,2,2090,2235,2016,2
0.338,1858,1982,2063,1,1926,2042,2081,1,1909,2034,2042,1,393,249,201,1,2143,2131,2122,1,1789,1762,2037,1,2032,2027,2051,1,2061,2065,2057,1
0.339,1077,1404,3587,2,513,17,3634,2,70,1450,631,2,395,252,212,2,2124,2116,2105,2,348,18,383,2,1003,668,1844,2,2046,2211,2001,2
0.34,1858,1976,2063,1,1926,2038,2083,1,1909,2031,2042,1,393,251,201,1,2143,2131,2120,1,1789,1763,2036,1,2032,2035,2050,1,2061,2063,2057,1
0.341,1489,1539,3514,2,696,16,3567,2,100,1506,675,2,391,246,211,2,2124,2112,2104,2,379,17,341,2,1029,897,1823,2,2068,2211,2009,2
0.342,1861,1968,2064,1,1928,2033,2086,1,1910,2028,2042,1,393,254,201,1,2142,2134,2122,1,1798,1717,2039,1,2031,2027,2053,1,2058,2064,2057,1
0.343,1153,1569,3548,2,541,15,3584,2,78,1530,701,2,391,244,211,2,2124,2111,2105,2,379,15,386,2,1029,948,1841,2,2068,2193,2014,2
0.344,1874,1988,2063,1,1932,2034,2086,1,1913,2032,2042,1,389,245,201,1,2141,2129,2121,1,1867,1795,2037,1,2038,2031,2051,1,2058,2062,2057,1
0.345,1073,1555,3548,2,500,15,3584,2,78,1532,701,2,393,246,211,2,2125,2113,2105,2,397,15,386,2,1015,925,1841,2,2083,2221,2014,2
0.346,1851,1983,2061,1,1926,2031,2085,1,1908,2030,2041,1,397,248,202,1,2144,2131,2122,1,1777,1764,2036,1,2028,2026,2051,1,2060,2063,2057,1
0.347,1109,1555,3528,2,515,15,3528,2,84,1532,765,2,392,246,212,2,2125,2113,2106,2,430,15,417,2,1066,925,1851,2,2045,2221,2008,2
0.348,1861,1973,2062,1,1930,2021,2089,1,1911,2025,2041,1,394,251,202,1,2143,2131,2122,1,1821,1763,2036,1,2032,2023,2051,1,2058,2063,2057,1
0.349,1109,1472,3486,2,515,15,3468,2,84,1512,801,2,392,249,212,2,2125,2114,2106,2,430,17,386,2,1066,884,1839,2,2045,2202,2015,2
0.35,1854,1973,2062,1,1928,2021,2089,1,1908,2025,2041,1,394,251,203,1,2144,2131,2122,1,1802,1763,2036,1,2030,2023,2050,1,2058,2063,2057,1
0.351,1139,1415,3636,2,526,18,3575,2,89,1496,793,2,391,252,212,2,2125,2117,2108,2,464,19,522,2,1111,748,1892,2,2021,2221,2003,2
0.352,1854,1977,2062,1,1928,2015,2088,1,1908,2025,2040,1,394,250,203,1,2144,2132,2122,1,1802,1769,2035,1,2030,2022,2050,1,2058,2063,2057,1
0.353,1336,1559,3553,2,607,16,3483,2,111,1557,833,2,387,246,212,2,2124,2113,2107,2,588,18,459,2,1336,984,1870,2,2006,2179,2011,2
0.354,1860,1974,2062,1,1931,2011,2088,1,1910,2023,2040,1,393,251,203,1,2144,2134,2122,1,1788,1745,2035,1,2028,2020,2050,1,2057,2064,2057,1
0.355,1017,1410,3375,2,463,16,3318,2,85,1507,890,2,393,253,212,2,2126,2118,2105,2,448,18,325,2,1018,703,1816,2,2062,2203,2010,2
0.356,1866,1993,2061,1,1932,2012,2085,1,1910,2027,2040,1,388,244,203,1,2142,2130,2122,1,1829,1817,2034,1,2034,2026,2050,1,2058,2062,2057,1
0.357,1141,1239,3516,2,520,20,3428,2,103,1522,881,2,392,252,212,2,2126,2116,2107,2,530,18,484,2,1156,788,1870,2,2034,2183,2010,2
0.358,1844,1977,2060,1,1927,2008,2082,1,1907,2023,2040,1,398,250,204,1,2145,2134,2121,1,1748,1745,2031,1,2026,2022,2048,1,2059,2064,2057,1
0.359,1141,1419,3528,2,520,18,3420,2,103,1522,915,2,392,252,210,2,2126,2116,2106,2,530,18,543,2,1156,788,1893,2,2034,2183,2008,2
0.36,1848,1957,2062,1,1927,2004,2082,1,1907,2018,2040,1,395,257,203,1,2145,2138,2124,1,1776,1763,2033,1,2031,2025,2052,1,2059,2063,2057,1
0.361,1021,1460,3528,2,464,17,3420,2,98,1545,915,2,393,249,210,2,2125,2114,2106,2,504,17,543,2,1051,836,1893,2,2064,2201,2008,2
0.362,1880,1979,2062,1,1929,2006,2077,1,1910,2023,2040,1,394,249,204,1,2146,2133,2123,1,1779,1763,2032,1,2034,2025,2049,1,2060,2063,2056,1
0.363,1035,1460,3458,2,471,17,3348,2,103,1545,958,2,391,249,208,2,2124,2114,2104,2,525,17,541,2,1074,836,1891,2,2038,2201,2010,2
0.364,1856,1987,2062,1,1929,2008,2077,1,1910,2025,2040,1,394,246,204,1,2146,2132,2123,1,1779,1784,2032,1,2034,2028,2049,1,2060,2062,2056,1
0.365,1035,1444,3399,2,471,17,3290,2,103,1550,985,2,391,249,208,2,2124,2113,2103,2,525,18,503,2,1074,858,1882,2,2038,2178,2018,2
0.366,1854,1987,2062,1,1928,2008,2069,1,1909,2025,2040,1,393,246,203,1,2144,2132,2123,1,1775,1784,2034,1,2034,2028,2050,1,2059,2062,2057,1
0.367,1119,1410,3501,2,509,19,3381,2,116,1540,977,2,388,251,207,2,2122,2115,2105,2,596,22,651,2,1179,759,1924,2,2021,2191,2009,2
0.368,1854,1983,2062,1,1928,2011,2065,1,1909,2025,2041,1,393,247,203,1,2144,2131,2122,1,1775,1781,2034,1,2034,2030,2050,1,2059,2062,2057,1
0.369,1254,1560,3416,2,569,17,3299,2,140,1603,1008,2,387,244,207,2,2122,2111,2104,2,706,20,580,2,1349,1008,1906,2,2010,2156,2017,2
0.37,1867,1977,2062,1,1931,2014,2065,1,1913,2025,2041,1,391,250,203,1,2143,2133,2122,1,1779,1746,2034,1,2029,2031,2050,1,2060,2064,2057,1
0.371,948,1530,3260,2,431,16,3151,2,107,1597,1054,2,394,246,208,2,2125,2112,2102,2,536,19,410,2,1024,941,1861,2,2058,2174,2024,2
0.372,1878,1995,2062,1,1932,2020,2061,1,1914,2030,2041,1,385,242,203,1,2140,2128,2121,1,1834,1819,2034,1,2036,2035,2049,1,2059,2062,2057,1
0.373,1035,1353,3363,2,472,18,3246,2,122,1531,1046,2,392,254,207,2,2124,2116,2104,2,604,20,587,2,1125,924,1905,2,2035,2156,2016,2
0.374,1856,1984,2061,1,1926,2022,2057,1,1909,2029,2041,1,394,247,203,1,2143,2131,2119,1,1755,1765,2032,1,2034,2034,2047,1,2061,2064,2056,1
0.375,1446,1505,3266,2,508,16,3150,2,142,1595,1080,2,389,247,207,2,2124,2112,2103,2,602,20,491,2,1097,924,1884,2,2051,2156,2022,2
0.376,1865,1969,2064,1,1929,2023,2055,1,1912,2033,2041,1,392,244,202,1,2142,2130,2121,1,1792,1776,2034,1,2037,2035,2051,1,2059,2063,2056,1
0.377,1122,1544,3263,2,508,14,3144,2,142,1619,1097,2,389,246,208,2,2124,2112,2104,2,602,18,543,2,1097,965,1897,2,2051,2143,2027,2
0.378,1861,1989,2065,1,1927,2031,2051,1,1910,2033,2042,1,392,244,201,1,2141,2130,2122,1,1774,1776,2037,1,2037,2035,2052,1,2059,2063,2055,1
0.379,1024,1532,3263,2,465,14,3144,2,136,1618,1097,2,393,247,208,2,2127,2113,2104,2,600,18,543,2,1062,936,1897,2,2065,2158,2027,2
0.38,1861,1990,2065,1,1927,2038,2051,1,1910,2036,2042,1,392,245,201,1,2141,2130,2121,1,1774,1780,2037,1,2037,2035,2052,1,2059,2063,2055,1
0.381,1047,1532,3191,2,477,14,3069,2,144,1618,1140,2,394,247,209,2,2128,2113,2106,2,650,18,578,2,1125,936,1904,2,2043,2158,2025,2
0.382,1865,1987,2065,1,1926,2041,2051,1,1912,2036,2042,1,394,246,201,1,2143,2131,2121,1,1776,1762,2037,1,2039,2034,2052,1,2061,2065,2055,1
0.383,787,1520,3132,2,361,13,3008,2,111,1618,1164,2,401,248,209,2,2130,2114,2106,2,487,17,516,2,844,912,1890,2,2076,2167,2030,2
0.384,1873,2002,2065,1,1928,2048,2052,1,1913,2041,2042,1,391,240,201,1,2141,2128,2121,1,1810,1833,2037,1,2040,2038,2052,1,2060,2062,2055,1
0.385,961,1438,3228,2,439,16,3103,2,137,1588,1156,2,395,252,208,2,2127,2117,2108,2,636,22,702,2,1071,751,1930,2,2052,2170,2023,2
0.386,1854,1989,2064,1,1923,2048,2055,1,1909,2038,2042,1,398,247,202,1,2145,2132,2120,1,1735,1768,2035,1,2034,2033,2052,1,2062,2064,2055,1
0.387,1160,1579,3113,2,525,14,2980,2,172,1648,1192,2,390,246,208,2,2125,2113,2106,2,814,20,532,2,1339,1009,1901,2,2036,2140,2028,2
0.388,1864,1972,2066,1,1926,2044,2058,1,1912,2033,2042,1,396,253,202,1,2145,2137,2123,1,1786,1692,2038,1,2038,2025,2054,1,2061,2065,2055,1
0.389,884,1525,2979,2,402,13,2839,2,134,1631,1231,2,399,249,209,2,2128,2115,2104,2,622,20,596,2,1024,912,1913,2,2064,2150,2027,2
0.39,1888,1990,2065,1,1932,2048,2062,1,1916,2037,2043,1,394,246,203,1,2145,2133,2123,1,1780,1776,2038,1,2033,2031,2053,1,2061,2063,2055,1
0.391,1009,1298,3086,2,459,15,2948,2,156,1612,1221,2,396,251,208,2,2128,2114,2106,2,738,21,596,2,1189,910,1913,2,2046,2134,2027,2
0.392,1867,1997,2065,1,1928,2049,2062,1,1912,2037,2043,1,394,243,203,1,2145,2131,2123,1,1780,1802,2038,1,2033,2032,2053,1,2061,2063,2055,1
0.393,1009,1462,3096,2,459,15,2953,2,156,1612,1242,2,396,251,206,2,2128,2114,2106,2,738,21,674,2,1189,910,1932,2,2046,2134,2025,2
0.394,1861,1997,2064,1,1927,2049,2073,1,1911,2037,2043,1,396,243,203,1,2146,2131,2124,1,1770,1802,2039,1,2030,2032,2053,1,2060,2063,2056,1
0.395,916,1484,3096,2,419,14,2953,2,149,1626,1242,2,396,250,206,2,2126,2114,2106,2,692,20,674,2,1097,921,1932,2,2058,2142,2025,2
0.396,1861,1992,2063,1,1927,2043,2078,1,1911,2035,2043,1,396,245,202,1,2146,2132,2124,1,1770,1789,2038,1,2030,2026,2053,1,2060,2062,2057,1
0.397,938,1484,3042,2,430,14,2894,2,156,1626,1272,2,396,250,206,2,2125,2114,2105,2,721,20,678,2,1130,921,1933,2,2041,2142,2027,2
0.398,1867,1986,2063,1,1932,2040,2078,1,1914,2032,2043,1,396,247,202,1,2146,2133,2124,1,1774,1764,2038,1,2025,2022,2053,1,2059,2064,2057,1
0.399,938,1438,2997,2,430,14,2842,2,156,1617,1292,2,396,252,206,2,2125,2114,2104,2,721,21,612,2,1130,1226,1925,2,2041,2127,2032,2
0.4,1872,2002,2062,1,1934,2041,2084,1,1914,2035,2043,1,390,241,202,1,2143,2129,2123,1,1816,1831,2036,1,2030,2029,2052,1,2059,2062,2057,1
0.401,955,1388,3075,2,437,16,2929,2,160,1601,1286,2,393,255,205,2,2123,2116,2106,2,752,24,802,2,1163,988,1957,2,2032,2133,2027,2
0.402,1851,1992,2060,1,1929,2036,2089,1,1911,2031,2043,1,399,244,203,1,2146,2130,2121,1,1740,1787,2032,1,2018,2022,2050,1,2060,2063,2057,1
0.403,1116,1546,3009,2,508,14,2854,2,194,1668,1310,2,389,247,205,2,2122,2111,2104,2,915,22,693,2,1387,1188,1943,2,2025,2112,2032,2
0.404,1871,1972,2061,1,1936,2029,2096,1,1915,2025,2043,1,390,252,202,1,2142,2134,2122,1,1829,1707,2035,1,2029,2019,2052,1,2059,2062,2057,1
0.405,849,1507,2886,2,389,13,2716,2,152,1657,1345,2,398,249,206,2,2125,2113,2102,2,694,21,489,2,1055,1050,1944,2,2050,2121,2032,2
0.406,1896,1990,2060,1,1945,2029,2098,1,1916,2029,2042,1,391,246,202,1,2143,2130,2121,1,1803,1783,2033,1,2025,2019,2050,1,2058,2062,2058,1
0.407,955,1297,2966,2,438,15,2810,2,175,1647,1339,2,396,251,205,2,2124,2113,2104,2,805,22,706,2,1199,988,1944,2,2038,2110,2032,2
0.408,1870,1994,2060,1,1938,2025,2100,1,1916,2029,2042,1,391,244,202,1,2143,2129,2121,1,1803,1795,2033,1,2025,2020,2050,1,2058,2062,2058,1
0.409,891,1464,2962,2,411,15,2808,2,166,1647,1360,2,397,251,204,2,2125,2113,2105,2,757,22,764,2,1121,988,1956,2,2030,2110,2031,2
0.41,1859,1991,2060,1,1934,2023,2100,1,1914,2028,2042,1,395,245,202,1,2144,2130,2121,1,1787,1786,2033,1,2026,2021,2050,1,2059,2064,2058,1
0.411,891,1501,2937,2,411,14,2780,2,166,1669,1375,2,397,249,204,2,2125,2113,2105,2,757,21,748,2,1121,977,1955,2,2030,2101,2035,2
0.412,1862,1991,2061,1,1935,2023,2098,1,1915,2028,2041,1,395,245,201,1,2144,2130,2121,1,1804,1786,2033,1,2029,2021,2050,1,2058,2064,2058,1
0.413,912,1482,2937,2,418,14,2780,2,175,1665,1375,2,395,251,204,2,2126,2115,2105,2,743,20,748,2,1086,914,1955,2,2045,2109,2035,2
0.414,1842,1988,2061,1,1929,2022,2093,1,1910,2027,2041,1,401,246,202,1,2146,2130,2121,1,1730,1775,2031,1,2023,2022,2049,1,2061,2065,2058,1
0.415,969,1620,2889,2,443,13,2726,2,190,1725,1396,2,392,245,204,2,2125,2112,2105,2,829,18,678,2,1196,1157,1949,2,2036,2093,2038,2
0.416,1851,1975,2062,1,1930,2018,2091,1,1910,2025,2041,1,396,252,202,1,2144,2134,2123,1,1768,1717,2034,1,2029,2021,2051,1,2061,2065,2058,1
0.417,729,1562,2823,2,336,13,2652,2,148,1705,1420,2,401,248,205,2,2128,2114,2104,2,626,17,560,2,903,1034,1932,2,2056,2101,2041,2
0.418,1872,1993,2061,1,1935,2019,2084,1,1916,2029,2041,1,390,245,202,1,2142,2130,2121,1,1851,1795,2032,1,2038,2027,2047,1,2060,2063,2058,1
0.419,846,1429,2889,2,389,16,2739,2,172,1653,1417,2,395,254,205,2,2126,2118,2106,2,765,22,792,2,1081,763,1961,2,2046,2105,2036,2
0.42,1853,1984,2059,1,1930,2018,2075,1,1912,2027,2041,1,396,249,203,1,2144,2133,2122,1,1769,1757,2034,1,2033,2028,2048,1,2060,2064,2058,1
0.421,1102,1570,2845,2,501,15,2686,2,227,1714,1437,2,385,247,206,2,2123,2114,2106,2,756,20,720,2,1061,1028,1955,2,2053,2092,2039,2
0.422,1849,1984,2062,1,1929,2018,2071,1,1912,2027,2041,1,402,249,203,1,2146,2133,2122,1,1752,1757,2034,1,2037,2028,2048,1,2060,2064,2058,1
0.423,850,1486,2705,2,388,15,2613,2,176,1682,1469,2,392,251,206,2,2125,2116,2106,2,756,19,734,2,1061,863,1955,2,2053,2098,2039,2
0.424,1849,1990,2063,1,1929,2021,2064,1,1912,2030,2041,1,402,247,204,1,2146,2132,2123,1,1752,1776,2035,1,2037,2033,2049,1,2060,2063,2058,1
0.425,759,1486,2778,2,348,15,2613,2,160,1682,1469,2,394,251,206,2,2125,2116,2106,2,722,19,734,2,992,863,1955,2,2059,2098,2039,2
0.426,1855,1987,2063,1,1928,2022,2064,1,1914,2030,2041,1,401,249,204,1,2147,2133,2123,1,1766,1768,2035,1,2043,2036,2049,1,2061,2064,2058,1
0.427,759,1526,2776,2,348,14,2614,2,160,1706,1480,2,394,249,206,2,2125,2114,2106,2,722,17,754,2,992,934,1960,2,2059,2090,2041,2
0.428,1861,1987,2063,1,1929,2022,2052,1,1915,2030,2041,1,399,249,204,1,2146,2133,2123,1,1796,1768,2036,1,2046,2036,2054,1,2060,2064,2058,1
0.429,797,1510,2776,2,366,14,2614,2,174,1702,1480,2,394,250,206,2,2125,2114,2106,2,748,18,754,2,1016,905,1960,2,2058,2094,2041,2
0.43,1844,1985,2063,1,1925,2024,2048,1,1910,2030,2041,1,404,250,204,1,2148,2133,2122,1,1726,1759,2036,1,2044,2038,2052,1,2063,2065,2057,1
0.431,855,1510,2725,2,393,14,2555,2,189,1702,1507,2,394,250,206,2,2125,2114,2106,2,842,18,761,2,1128,905,1963,2,2050,2094,2041,2
0.432,1863,1971,2065,1,1928,2023,2045,1,1914,2027,2041,1,396,254,203,1,2144,2137,2124,1,1800,1699,2037,1,2046,2037,2054,1,2061,2066,2057,1
0.433,645,1495,2686,2,297,13,2506,2,143,1699,1523,2,399,250,207,2,2126,2114,2104,2,633,18,644,2,852,879,1951,2,2062,2095,2044,2
0.434,1884,1990,2064,1,1931,2028,2043,1,1917,2033,2042,1,385,246,203,1,2140,2131,2123,1,1788,1783,2038,1,2045,2039,2053,1,2061,2063,2057,1
0.435,753,1397,2750,2,349,16,2598,2,172,1661,1518,2,397,255,206,2,2125,2117,2105,2,771,24,877,2,1020,685,1977,2,2052,2094,2041,2
0.436,1863,1981,2062,1,1928,2028,2043,1,1914,2031,2042,1,395,249,203,1,2143,2133,2122,1,1788,1742,2037,1,2045,2038,2052,1,2061,2065,2057,1
0.437,979,1551,2698,2,448,14,2524,2,228,1727,1537,2,391,247,206,2,2123,2112,2103,2,1012,22,714,2,1330,985,1965,2,2055,2084,2043,2
0.438,1855,1985,2064,1,1926,2031,2043,1,1911,2032,2042,1,395,248,203,1,2142,2132,2122,1,1769,1761,2037,1,2042,2038,2052,1,2062,2066,2057,1
0.439,752,1486,2598,2,346,13,2385,2,178,1702,1558,2,399,250,206,2,2126,2114,2104,2,780,21,758,2,1027,860,1968,2,2055,2086,2043,2
0.44,1856,1985,2063,1,1926,2031,2048,1,1910,2032,2042,1,393,248,203,1,2142,2132,2121,1,1778,1761,2037,1,2041,2038,2052,1,2061,2066,2056,1
0.441,681,1523,2665,2,318,13,2484,2,167,1721,1558,2,403,249,206,2,2128,2113,2104,2,733,19,758,2,949,935,1968,2,2055,2085,2043,2
0.442,1856,1980,2062,1,1926,2032,2053,1,1910,2031,2042,1,393,250,204,1,2142,2131,2121,1,1778,1769,2036,1,2041,2033,2051,1,2061,2064,2055,1
0.443,697,1523,2665,2,325,13,2490,2,172,1721,1571,2,401,249,207,2,2127,2113,2105,2,759,19,799,2,978,935,1976,2,2048,2085,2043,2
0.444,1863,1975,2063,1,1928,2031,2057,1,1911,2030,2042,1,389,252,204,1,2140,2133,2123,1,1810,1734,2037,1,2041,2026,2053,1,2061,2065,2055,1
0.445,697,1505,2648,2,325,12,2466,2,172,1719,1582,2,401,251,207,2,2127,2114,2106,2,759,21,770,2,978,957,1976,2,2048,2076,2045,2
0.446,1875,1993,2062,1,1933,2035,2063,1,1915,2035,2042,1,387,245,204,1,2140,2129,2122,1,1864,1809,2035,1,2043,2032,2051,1,2060,2063,2055,1
0.447,810,1467,2648,2,372,12,2466,2,202,1706,1582,2,396,253,207,2,2127,2116,2106,2,803,21,770,2,681,868,1976,2,2050,2076,2045,2
0.448,1857,1982,2060,1,1929,2034,2071,1,1912,2032,2042,1,395,249,205,1,2142,2132,2120,1,1777,1755,2032,1,2028,2024,2052,1,2060,2065,2056,1
0.449,896,1609,2630,2,410,11,2440,2,226,1768,1595,2,393,246,207,2,2125,2113,2106,2,951,19,747,2,962,1136,1978,2,2045,2070,2047,2
0.45,1865,1957,2061,1,1932,2032,2079,1,1913,2030,2042,1,391,251,204,1,2141,2132,2122,1,1813,1766,2035,1,2031,2021,2052,1,2060,2064,2056,1
0.451,679,1488,2574,2,313,11,2361,2,174,1720,1613,2,401,251,207,2,2128,2117,2104,2,719,19,569,2,744,889,1960,2,2050,2071,2048,2
0.452,1865,1978,2061,1,1932,2032,2091,1,1913,2030,2042,1,391,251,204,1,2141,2132,2124,1,1813,1766,2035,1,2031,2021,2053,1,2060,2064,2057,1
0.453,885,1352,2624,2,407,14,2445,2,229,1664,1611,2,395,258,206,2,2125,2120,2106,2,1002,28,839,2,1135,640,1983,2,2045,2065,2046,2
0.454,1859,1982,2061,1,1932,2032,2091,1,1912,2030,2042,1,393,250,204,1,2143,2132,2124,1,1786,1772,2035,1,2022,2020,2053,1,2060,2065,2057,1
0.455,1129,1515,2589,2,515,13,2390,2,231,1736,1627,2,395,251,207,2,2126,2116,2106,2,925,25,731,2,1098,950,1979,2,2045,2065,2047,2
0.456,1861,1982,2061,1,1933,2032,2099,1,1913,2030,2042,1,392,250,204,1,2143,2132,2124,1,1793,1772,2035,1,2022,2020,2053,1,2060,2065,2057,1
0.457,868,1572,2589,2,398,12,2390,2,231,1766,1627,2,395,248,207,2,2126,2113,2106,2,925,21,731,2,1098,1048,1979,2,2045,2062,2047,2
0.458,1861,1977,2060,1,1933,2028,2100,1,1913,2028,2042,1,392,252,203,1,2143,2133,2123,1,1793,1771,2034,1,2022,2028,2052,1,2060,2062,2057,1
0.459,806,1572,2585,2,370,12,2394,2,215,1766,1644,2,394,248,206,2,2125,2113,2106,2,889,21,827,2,1066,1048,1992,2,2045,2062,2046,2
0.46,1864,1971,2061,1,1935,2026,2103,1,1915,2026,2042,1,393,254,202,1,2143,2136,2124,1,1802,1728,2037,1,2023,2020,2054,1,2058,2063,2057,1
0.461,806,1546,2569,2,370,12,2374,2,215,1759,1655,2,394,248,205,2,2125,2112,2105,2,889,21,815,2,1066,1023,1993,2,2045,2059,2047,2
0.462,1879,1991,2060,1,1940,2029,2101,1,1918,2030,2042,1,387,246,202,1,2140,2131,2122,1,1865,1803,2034,1,2030,2026,2051,1,2057,2062,2057,1
0.463,816,1508,2569,2,373,12,2374,2,222,1746,1655,2,392,250,205,2,2124,2113,2105,2,878,20,815,2,1066,940,1993,2,2048,2059,2047,2
0.464,1859,1986,2059,1,1934,2028,2097,1,1913,2029,2042,1,393,248,202,1,2143,2133,2120,1,1779,1775,2034,1,2021,2023,2051,1,2059,2063,2057,1
0.465,868,1640,2552,2,398,11,2354,2,239,1804,1667,2,389,243,204,2,2122,2109,2105,2,995,18,803,2,1204,1195,1996,2,2046,2057,2048,2
0.466,1868,1958,2061,1,1936,2025,2097,1,1916,2028,2042,1,391,250,202,1,2143,2132,2123,1,1822,1775,2034,1,2027,2025,2051,1,2059,2063,2057,1
0.467,654,1570,2505,2,302,11,2286,2,183,1776,1683,2,397,246,204,2,2124,2111,2103,2,749,18,636,2,910,1052,1983,2,2048,2057,2049,2
0.468,1864,1979,2062,1,1935,2025,2087,1,1916,2028,2042,1,394,250,201,1,2143,2132,2122,1,1802,1775,2036,1,2028,2025,2052,1,2058,2063,2057,1
0.469,830,1426,2543,2,384,15,2365,2,235,1716,1682,2,391,254,204,2,2122,2116,2105,2,1020,26,906,2,1219,755,2001,2,2046,2055,2048,2
0.47,1864,1984,2062,1,1935,2026,2080,1,1916,2029,2042,1,394,249,200,1,2143,2131,2121,1,1802,1779,2036,1,2028,2027,2052,1,2058,2062,2057,1
0.471,1034,1570,2514,2,476,14,2320,2,296,1779,1694,2,384,247,204,2,2122,2112,2104,2,942,24,809,2,1130,1040,1998,2,2046,2054,2049,2
0.472,1870,1981,2062,1,1936,2026,2080,1,1918,2029,2042,1,394,251,200,1,2143,2132,2121,1,1792,1758,2036,1,2033,2028,2052,1,2058,2062,2057,1
0.473,792,1478,2468,2,366,13,2257,2,227,1742,1715,2,391,252,205,2,2122,2115,2104,2,942,23,827,2,1130,857,1996,2,2046,2052,2050,2
0.474,1875,1998,2062,1,1935,2029,2070,1,1918,2033,2042,1,390,243,201,1,2142,2128,2121,1,1830,1828,2037,1,2039,2033,2052,1,2058,2061,2057,1
0.475,700,1505,2468,2,325,12,2257,2,204,1756,1715,2,394,251,205,2,2124,2114,2104,2,886,22,827,2,1052,914,1996,2,2046,2050,2050,2
0.476,1856,1991,2062,1,1930,2029,2061,1,1913,2032,2042,1,395,247,202,1,2143,2130,2119,1,1751,1788,2034,1,2037,2034,2050,1,2061,2063,2057,1
0.477,710,1505,2462,2,332,12,2264,2,210,1756,1726,2,396,251,206,2,2125,2114,2105,2,917,22,861,2,1083,914,2001,2,2046,2050,2050,2
0.478,1867,1972,2064,1,1930,2025,2054,1,1916,2028,2042,1,392,254,202,1,2142,2134,2121,1,1806,1711,2036,1,2043,2037,2053,1,2060,2063,2057,1
0.479,710,1469,2447,2,332,13,2242,2,210,1744,1735,2,396,254,206,2,2125,2115,2105,2,917,23,795,2,1083,949,2000,2,2046,2048,2051,2
0.48,1894,1991,2063,1,1933,2028,2047,1,1916,2033,2042,1,390,246,202,1,2142,2129,2121,1,1795,1789,2036,1,2043,2037,2051,1,2060,2063,2057,1
0.481,722,1422,2481,2,338,15,2321,2,214,1725,1733,2,395,256,206,2,2125,2117,2108,2,948,26,1043,2,1114,821,2015,2,2047,2045,2051,2
0.482,1872,1995,2063,1,1930,2029,2047,1,1916,2035,2042,1,390,245,202,1,2142,2129,2121,1,1795,1805,2036,1,2043,2039,2051,1,2060,2062,2057,1
0.483,840,1576,2456,2,389,14,2275,2,252,1793,1743,2,390,249,206,2,2125,2113,2107,2,1142,23,913,2,1331,1108,2011,2,2049,2047,2052,2
0.484,1868,1995,2064,1,1930,2029,2038,1,1916,2035,2042,1,393,245,202,1,2143,2129,2122,1,1788,1805,2037,1,2043,2039,2050,1,2058,2062,2057,1
0.485,637,1432,2402,2,296,13,2178,2,193,1733,1757,2,398,255,207,2,2128,2118,2105,2,868,22,644,2,1015,800,1992,2,2047,2044,2052,2
0.486,1868,1989,2063,1,1930,2029,2037,1,1916,2034,2042,1,393,247,202,1,2143,2131,2122,1,1788,1795,2037,1,2043,2038,2051,1,2058,2062,2057,1
0.487,702,1276,2435,2,326,14,2257,2,215,1667,1755,2,396,262,206,2,2128,2116,2107,2,976,24,916,2,1130,905,2007,2,2049,2043,2052,2
0.488,1877,1982,2063,1,1931,2028,2037,1,1916,2033,2042,1,387,250,202,1,2143,2134,2122,1,1788,1760,2037,1,2038,2036,2051,1,2061,2064,2057,1
0.489,702,1458,2436,2,326,13,2271,2,215,1747,1766,2,396,254,206,2,2128,2116,2107,2,976,24,1011,2,1130,905,2018,2,2049,2043,2053,2
0.49,1886,1999,2063,1,1934,2031,2040,1,1919,2037,2042,1,386,244,202,1,2142,2130,2122,1,1840,1830,2037,1,2043,2039,2051,1,2059,2062,2056,1
0.491,625,1503,2436,2,292,14,2271,2,196,1768,1766,2,399,252,206,2,2128,2115,2107,2,883,22,1011,2,1015,971,2018,2,2046,2040,2053,2
0.492,1864,1981,2061,1,1930,2028,2045,1,1916,2033,2042,1,397,250,204,1,2146,2135,2121,1,1763,1748,2034,1,2037,2033,2049,1,2060,2064,2057,1
0.493,633,1503,2416,2,295,14,2239,2,199,1768,1778,2,396,252,205,2,2126,2115,2106,2,898,22,972,2,1031,971,2016,2,2049,2040,2054,2
0.494,1870,1959,2062,1,1931,2024,2050,1,1916,2027,2042,1,392,250,203,1,2144,2134,2124,1,1797,1767,2035,1,2040,2031,2052,1,2060,2063,2057,1
0.495,633,1494,2400,2,295,13,2208,2,199,1767,1787,2,396,251,205,2,2126,2113,2105,2,898,23,907,2,1031,988,2016,2,2049,2040,2055,2
0.496,1864,1981,2062,1,1931,2028,2062,1,1916,2032,2042,1,395,250,202,1,2145,2134,2124,1,1779,1767,2036,1,2034,2031,2053,1,2058,2063,2056,1
0.497,741,1452,2400,2,342,13,2208,2,237,1751,1787,2,392,253,205,2,2126,2115,2105,2,926,23,907,2,718,877,2016,2,2044,2036,2055,2
0.498,1864,1987,2062,1,1931,2029,2069,1,1916,2034,2042,1,395,248,201,1,2145,2133,2123,1,1779,1781,2036,1,2034,2028,2052,1,2058,2062,2056,1
0.499,821,1600,2375,2,378,12,2153,2,267,1817,1798,2,391,246,205,2,2125,2110,2103,2,1099,20,763,2,1011,1155,2013,2,2047,2040,2055,2
0.5,1867,1986,2062,1,1936,2030,2069,1,1918,2033,2042,1,395,248,201,1,2144,2133,2123,1,1780,1769,2036,1,2028,2025,2052,1,2058,2064,2056,1
0.501,622,1473,2339,2,289,12,2083,2,206,1764,1809,2,400,252,206,2,2127,2114,2102,2,832,20,562,2,783,883,2000,2,2041,2035,2055,2
0.502,1872,1986,2060,1,1937,2030,2082,1,1918,2033,2042,1,391,248,201,1,2142,2133,2122,1,1813,1769,2036,1,2032,2025,2055,1,2059,2064,2056,1
0.503,672,1326,2367,2,313,14,2163,2,224,1702,1809,2,399,259,206,2,2126,2118,2104,2,939,24,878,2,945,954,2013,2,2045,2035,2055,2
0.504,1854,1984,2059,1,1932,2030,2087,1,1914,2032,2042,1,397,249,202,1,2143,2133,2121,1,1740,1755,2034,1,2022,2021,2052,1,2061,2065,2056,1
0.505,938,1497,2346,2,336,13,2115,2,245,1778,1818,2,397,252,206,2,2126,2113,2103,2,944,24,753,2,1009,954,2012,2,2043,2035,2055,2
0.506,1863,1969,2060,1,1935,2027,2093,1,1917,2028,2042,1,394,254,202,1,2143,2136,2123,1,1790,1690,2036,1,2028,2012,2053,1,2060,2066,2056,1
0.507,725,1557,2346,2,336,12,2125,2,245,1807,1825,2,397,248,206,2,2126,2112,2104,2,944,20,838,2,1009,1049,2017,2,2043,2035,2055,2
0.508,1887,1989,2060,1,1943,2031,2095,1,1923,2033,2042,1,387,247,201,1,2144,2131,2122,1,1787,1775,2035,1,2026,2020,2052,1,2060,2063,2056,1
0.509,669,1549,2346,2,309,12,2125,2,228,1805,1825,2,397,249,206,2,2126,2112,2104,2,932,20,838,2,1021,1028,2017,2,2042,2029,2055,2
0.51,1867,1996,2060,1,1938,2033,2095,1,1920,2033,2042,1,396,245,201,1,2144,2129,2122,1,1787,1807,2035,1,2026,2023,2052,1,2060,2062,2056,1
0.511,690,1549,2326,2,318,12,2097,2,234,1805,1839,2,394,249,207,2,2125,2112,2105,2,995,20,884,2,1096,1028,2019,2,2048,2029,2056,2
0.512,1867,1996,2060,1,1938,2033,2095,1,1920,2033,2042,1,396,245,201,1,2144,2129,2122,1,1787,1807,2035,1,2026,2023,2052,1,2060,2062,2056,1
0.513,519,1576,2310,2,242,12,2067,2,179,1818,1846,2,403,249,208,2,2128,2112,2105,2,745,19,786,2,824,1079,2016,2,2039,2026,2056,2
0.514,1867,1996,2060,1,1938,2033,2095,1,1920,2033,2042,1,396,245,201,1,2144,2129,2122,1,1787,1807,2035,1,2026,2023,2052,1,2060,2062,2056,1
0.515,640,1481,2332,2,297,14,2141,2,221,1778,1845,2,397,253,208,2,2126,2116,2108,2,958,26,1059,2,1055,882,2026,2,2045,2022,2057,2
0.516,1867,1996,2060,1,1938,2033,2095,1,1920,2033,2042,1,396,245,201,1,2144,2129,2122,1,1787,1807,2035,1,2026,2023,2052,1,2060,2062,2056,1
0.517,784,1617,2312,2,361,13,2093,2,272,1839,1853,2,390,247,208,2,2123,2112,2107,2,1210,23,903,2,1330,1155,2024,2,2049,2029,2057,2
0.518,1867,1996,2060,1,1938,2033,2095,1,1920,2033,2042,1,396,245,201,1,2144,2129,2122,1,1787,1807,2035,1,2026,2023,2052,1,2060,2062,2056,1
0.519,601,1557,2273,2,279,13,1997,2,211,1815,1864,2,397,250,209,2,2125,2114,2105,2,920,22,928,2,1016,1033,2024,2,2040,2023,2057,2
0.52,1867,1996,2060,1,1938,2033,2095,1,1920,2033,2042,1,396,245,201,1,2144,2129,2122,1,1787,1807,2035,1,2026,2023,2052,1,2060,2062,2056,1
0.521,689,1322,2295,2,319,13,2078,2,241,1787,1863,2,392,253,208,2,2123,2115,2107,2,1076,26,928,2,1182,1015,2024,2,2047,2025,2057,2
0.522,1867,1996,2060,1,1938,2033,2095,1,1920,2033,2042,1,396,245,201,1,2144,2129,2122,1,1787,1807,2035,1,2026,2023,2052,1,2060,2062,2056,1
0.523,689,1486,2293,2,319,13,2096,2,241,1787,1872,2,392,253,207,2,2123,2115,2107,2,1076,26,999,2,1182,1015,2030,2,2047,2025,2058,2
0.524,1867,1996,2060,1,1938,2033,2095,1,1920,2033,2042,1,396,245,201,1,2144,2129,2122,1,1787,1807,2035,1,2026,2023,2052,1,2060,2062,2056,1
0.525,625,1508,2293,2,292,12,2096,2,224,1798,1872,2,397,252,207,2,2125,2115,2107,2,999,24,999,2,1091,1024,2030,2,2042,2019,2058,2
0.526,1867,1996,2060,1,1938,2033,2095,1,1920,2033,2042,1,396,245,201,1,2144,2129,2122,1,1787,1807,2035,1,2026,2023,2052,1,2060,2062,2056,1
0.527,640,1508,2276,2,301,12,2072,2,232,1798,1881,2,397,252,205,2,2125,2115,2105,2,1029,24,978,2,1122,1024,2028,2,2048,2019,2059,2
0.528,1867,1996,2060,1,1938,2033,2095,1,1920,2033,2042,1,396,245,201,1,2144,2129,2122,1,1787,1807,2035,1,2026,2023,2052,1,2060,2062,2056,1
0.529,640,1463,2264,2,301,13,2045,2,232,1782,1887,2,397,253,205,2,2125,2114,2104,2,1029,25,880,2,1122,1011,2028,2,2048,2022,2058,2
0.53,1867,1996,2060,1,1938,2033,2095,1,1920,2033,2042,1,396,245,201,1,2144,2129,2122,1,1787,1807,2035,1,2026,2023,2052,1,2060,2062,2056,1
0.531,654,1415,2280,2,310,14,2114,2,240,1761,1887,2,397,255,204,2,2125,2115,2105,2,1057,28,1138,2,1149,860,2034,2,2052,2017,2059,2
0.532,1867,1996,2060,1,1938,2033,2095,1,1920,2033,2042,1,396,245,201,1,2144,2129,2122,1,1787,1807,2035,1,2026,2023,2052,1,2060,2062,2056,1
0.533,767,1573,2265,2,361,13,2070,2,284,1831,1894,2,392,248,204,2,2123,2111,2104,2,1260,25,985,2,1364,1146,2033,2,2055,2025,2058,2
0.534,1867,1996,2060,1,1938,2033,2095,1,1920,2033,2042,1,396,245,201,1,2144,2129,2122,1,1787,1807,2035,1,2026,2023,2052,1,2060,2062,2056,1
0.535,584,1484,2234,2,277,13,1982,2,220,1794,1902,2,401,252,205,2,2126,2114,2102,2,955,23,694,2,1037,940,2022,2,2043,2017,2059,2
0.536,1867,1996,2060,1,1938,2033,2095,1,1920,2033,2042,1,396,245,201,1,2144,2129,2122,1,1787,1807,2035,1,2026,2023,2052,1,2060,2062,2056,1
0.537,656,1296,2250,2,310,15,2056,2,245,1791,1902,2,395,252,205,2,2124,2114,2104,2,1084,25,984,2,1170,979,2029,2,2050,2020,2059,2
0.538,1867,1996,2060,1,1938,2033,2095,1,1920,2033,2042,1,396,245,201,1,2144,2129,2122,1,1787,1807,2035,1,2026,2023,2052,1,2060,2062,2056,1
0.539,611,1472,2247,2,289,14,2067,2,228,1791,1910,2,395,252,204,2,2124,2114,2105,2,1010,25,1061,2,1091,979,2035,2,2053,2020,2061,2
0.54,1867,1996,2060,1,1938,2033,2095,1,1920,2033,2042,1,396,245,201,1,2144,2129,2122,1,1787,1807,2035,1,2026,2023,2052,1,2060,2062,2056,1
0.541,611,1525,2241,2,289,26,2054,2,228,1815,1915,2,395,250,205,2,2124,2113,2105,2,1010,24,1038,2,1091,1022,2036,2,2053,2022,2060,2
0.542,1867,1996,2060,1,1938,2033,2095,1,1920,2033,2042,1,396,245,201,1,2144,2129,2122,1,1787,1807,2035,1,2026,2023,2052,1,2060,2062,2056,1
0.543,626,1512,2241,2,293,42,2054,2,235,1810,1915,2,393,250,205,2,2125,2114,2105,2,989,22,1038,2,1069,980,2036,2,2046,2015,2060,2
0.544,1867,1996,2060,1,1938,2033,2095,1,1920,2033,2042,1,396,245,201,1,2144,2129,2122,1,1787,1807,2035,1,2026,2023,2052,1,2060,2062,2056,1
0.545,668,1512,2219,2,313,42,2001,2,252,1810,1925,2,391,250,207,2,2124,2114,2105,2,1086,22,994,2,1166,980,2042,2,2052,2015,2060,2
0.546,1867,1996,2060,1,1938,2033,2095,1,1920,2033,2042,1,396,245,201,1,2144,2129,2122,1,1787,1807,2035,1,2026,2023,2052,1,2060,2062,2056,1
0.547,503,1539,2205,2,237,69,1965,2,191,1823,1930,2,397,250,208,2,2126,2114,2105,2,815,21,828,2,879,1026,2036,2,2039,2009,2060,2
0.548,1867,1996,2060,1,1938,2033,2095,1,1920,2033,2042,1,396,245,201,1,2144,2129,2122,1,1787,1807,2035,1,2026,2023,2052,1,2060,2062,2056,1
0.549,531,1428,2218,2,249,97,2033,2,202,1775,1930,2,395,256,208,2,2126,2118,2107,2,882,25,1105,2,947,787,2040,2,2048,2004,2062,2
0.55,1867,1996,2060,1,1938,2033,2095,1,1920,2033,2042,1,396,245,201,1,2144,2129,2122,1,1787,1807,2035,1,2026,2023,2052,1,2060,2062,2056,1
0.551,725,1577,2210,2,337,126,2009,2,279,1842,1935,2,390,249,208,2,2124,2114,2106,2,1197,22,1003,2,993,1087,2040,2,2042,2015,2061,2
0.552,1867,1996,2060,1,1938,2033,2095,1,1920,2033,2042,1,396,245,201,1,2144,2129,2122,1,1787,1807,2035,1,2026,2023,2052,1,2060,2062,2056,1
0.553,559,1505,2180,2,261,153,1909,2,218,1812,1943,2,399,253,208,2,2128,2116,2106,2,926,21,986,2,993,937,2036,2,2042,2007,2062,2
0.554,1867,1996,2060,1,1938,2033,2095,1,1920,2033,2042,1,396,245,201,1,2144,2129,2122,1,1787,1807,2035,1,2026,2023,2052,1,2060,2062,2056,1
0.555,516,1505,2193,2,241,153,1979,2,203,1812,1943,2,400,253,208,2,2128,2116,2106,2,882,21,986,2,940,937,2036,2,2038,2007,2062,2
0.556,1867,1996,2060,1,1938,2033,2095,1,1920,2033,2042,1,396,245,201,1,2144,2129,2122,1,1787,1807,2035,1,2026,2023,2052,1,2060,2062,2056,1
0.557,516,1552,2191,2,241,217,1987,2,203,1834,1946,2,400,251,208,2,2128,2115,2106,2,882,19,1004,2,940,1026,2037,2,2038,2013,2060,2
0.558,1867,1996,2060,1,1938,2033,2095,1,1920,2033,2042,1,396,245,201,1,2144,2129,2122,1,1787,1807,2035,1,2026,2023,2052,1,2060,2062,2056,1
0.559,557,1540,2191,2,260,248,1987,2,221,1830,1946,2,398,251,208,2,2127,2115,2106,2,930,19,1004,2,990,1002,2037,2,2037,2005,2060,2
0.56,1867,1996,2060,1,1938,2033,2095,1,1920,2033,2042,1,396,245,201,1,2144,2129,2122,1,1787,1807,2035,1,2026,2023,2052,1,2060,2062,2056,1
0.561,603,1540,2178,2,283,248,1968,2,241,1830,1954,2,397,251,207,2,2126,2115,2104,2,1030,19,987,2,1090,1002,2036,2,2047,2005,2062,2
0.562,1867,1996,2060,1,1938,2033,2095,1,1920,2033,2042,1,396,245,201,1,2144,2129,2122,1,1787,1807,2035,1,2026,2023,2052,1,2060,2062,2056,1
0.563,457,1527,2167,2,217,283,1947,2,186,1826,1958,2,404,251,207,2,2127,2114,2103,2,774,18,846,2,822,976,2032,2,2032,1999,2060,2
0.564,1867,1996,2060,1,1938,2033,2095,1,1920,2033,2042,1,396,245,201,1,2144,2129,2122,1,1787,1807,2035,1,2026,2023,2052,1,2060,2062,2056,1
0.565,587,1436,2177,2,278,313,2009,2,239,1786,1958,2,399,254,206,2,2125,2116,2105,2,1028,26,1126,2,1078,786,2037,2,2043,1996,2063,2
0.566,1867,1996,2060,1,1938,2033,2095,1,1920,2033,2042,1,396,245,201,1,2144,2129,2122,1,1787,1807,2035,1,2026,2023,2052,1,2060,2062,2056,1
0.567,737,1586,2167,2,343,354,1976,2,297,1853,1963,2,390,247,205,2,2122,2112,2103,2,1305,24,935,2,1373,1093,2038,2,2052,2009,2061,2
0.568,1867,1996,2060,1,1938,2033,2095,1,1920,2033,2042,1,396,245,201,1,2144,2129,2122,1,1787,1807,2035,1,2026,2023,2052,1,2060,2062,2056,1
0.569,566,1525,2146,2,265,379,1909,2,229,1828,1970,2,396,250,207,2,2124,2114,2104,2,994,23,963,2,1051,971,2037,2,2038,2002,2061,2
0.57,1867,1996,2060,1,1938,2033,2095,1,1920,2033,2042,1,396,245,201,1,2144,2129,2122,1,1787,1807,2035,1,2026,2023,2052,1,2060,2062,2056,1
0.571,501,1586,2156,2,237,445,1973,2,207,1857,1971,2,401,248,207,2,2126,2112,2104,2,894,21,963,2,938,1100,2037,2,2033,1996,2061,2
0.572,1867,1996,2060,1,1938,2033,2095,1,1920,2033,2042,1,396,245,201,1,2144,2129,2122,1,1787,1807,2035,1,2026,2023,2052,1,2060,2062,2056,1
0.573,681,1708,2153,2,319,478,1971,2,280,1912,1976,2,393,242,207,2,2123,2109,2104,2,1215,18,922,2,1272,1349,2040,2,2034,2012,2059,2
0.574,1867,1996,2060,1,1938,2033,2095,1,1920,2033,2042,1,396,245,201,1,2144,2129,2122,1,1787,1807,2035,1,2026,2023,2052,1,2060,2062,2056,1
0.575,525,1605,2133,2,246,490,1906,2,217,1867,1983,2,398,247,207,2,2126,2112,2104,2,936,19,956,2,985,1138,2039,2,2034,2003,2061,2
0.576,1867,1996,2060,1,1938,2033,2095,1,1920,2033,2042,1,396,245,201,1,2144,2129,2122,1,1787,1807,2035,1,2026,2023,2052,1,2060,2062,2056,1
0.577,483,1605,2142,2,227,490,1969,2,199,1867,1984,2,399,247,207,2,2127,2112,2104,2,880,19,956,2,921,1138,2039,2,2034,2003,2061,2
0.578,1867,1996,2060,1,1938,2033,2095,1,1920,2033,2042,1,396,245,201,1,2144,2129,2122,1,1787,1807,2035,1,2026,2023,2052,1,2060,2062,2056,1
0.579,483,1608,2140,2,227,544,1981,2,199,1871,1987,2,399,248,207,2,2127,2113,2105,2,880,18,998,2,921,1144,2043,2,2034,2010,2060,2
0.58,1867,1996,2060,1,1938,2033,2095,1,1920,2033,2042,1,396,245,201,1,2144,2129,2122,1,1787,1807,2035,1,2026,2023,2052,1,2060,2062,2056,1
0.581,520,1583,2140,2,242,568,1981,2,215,1862,1987,2,398,249,207,2,2128,2114,2105,2,937,18,998,2,980,1095,2043,2,2036,2001,2060,2
0.582,1867,1996,2060,1,1938,2033,2095,1,1920,2033,2042,1,396,245,201,1,2144,2129,2122,1,1787,1807,2035,1,2026,2023,2052,1,2060,2062,2056,1
0.583,566,1583,2131,2,266,568,1974,2,236,1862,1995,2,398,249,208,2,2128,2114,2107,2,1031,18,996,2,1072,1095,2045,2,2046,2001,2062,2
0.584,1867,1996,2060,1,1938,2033,2095,1,1920,2033,2042,1,396,245,201,1,2144,2129,2122,1,1787,1807,2035,1,2026,2023,2052,1,2060,2062,2056,1
0.585,426,1562,2123,2,200,596,1959,2,179,1854,1998,2,404,250,209,2,2131,2115,2106,2,777,19,868,2,811,1054,2042,2,2031,1995,2060,2
0.586,1867,1996,2060,1,1938,2033,2095,1,1920,2033,2042,1,396,245,201,1,2144,2129,2122,1,1787,1807,2035,1,2026,2023,2052,1,2060,2062,2056,1
0.587,502,1465,2129,2,235,612,2007,2,210,1812,1999,2,399,255,208,2,2128,2118,2108,2,930,25,1153,2,964,850,2046,2,2045,1990,2063,2
0.588,1867,1996,2060,1,1938,2033,2095,1,1920,2033,2042,1,396,245,201,1,2144,2129,2122,1,1787,1807,2035,1,2026,2023,2052,1,2060,2062,2056,1
0.589,661,1606,2122,2,306,659,1980,2,276,1876,2004,2,391,249,208,2,2126,2114,2107,2,1247,23,968,2,1285,1142,2049,2,2054,2005,2062,2
0.59,1867,1996,2060,1,1938,2033,2095,1,1920,2033,2042,1,396,245,201,1,2144,2129,2122,1,1787,1807,2035,1,2026,2023,2052,1,2060,2062,2056,1
0.591,511,1546,2109,2,240,674,1927,2,216,1850,2009,2,399,251,208,2,2128,2116,2106,2,954,23,991,2,987,1020,2047,2,2037,1996,2063,2
0.592,1867,1996,2060,1,1938,2033,2095,1,1920,2033,2042,1,396,245,201,1,2144,2129,2122,1,1787,1807,2035,1,2026,2023,2052,1,2060,2062,2056,1
0.593,604,1307,2114,2,283,710,1974,2,257,1821,2009,2,396,252,207,2,2127,2114,2106,2,1146,26,991,2,1175,1017,2047,2,2049,2002,2063,2
0.594,1867,1996,2060,1,1938,2033,2095,1,1920,2033,2042,1,396,245,201,1,2144,2129,2122,1,1787,1807,2035,1,2026,2023,2052,1,2060,2062,2056,1
0.595,572,1476,2112,2,270,710,1984,2,246,1821,2014,2,398,252,206,2,2127,2114,2105,2,1087,26,1055,2,1115,1017,2051,2,2057,2002,2064,2
0.596,1867,1996,2060,1,1938,2033,2095,1,1920,2033,2042,1,396,245,201,1,2144,2129,2122,1,1787,1807,2035,1,2026,2023,2052,1,2060,2062,2056,1
0.597,572,1511,2109,2,270,755,1978,2,246,1836,2016,2,398,250,205,2,2127,2113,2105,2,1087,24,1023,2,1115,1036,2051,2,2057,2007,2063,2
0.598,1867,1996,2060,1,1938,2033,2095,1,1920,2033,2042,1,396,245,201,1,2144,2129,2122,1,1787,1807,2035,1,2026,2023,2052,1,2060,2062,2056,1
0.599,607,1489,2109,2,285,770,1978,2,261,1827,2016,2,393,252,205,2,2124,2114,2105,2,1054,23,1023,2,1087,966,2051,2,2046,1997,2063,2
0.6,1867,1996,2060,1,1938,2033,2095,1,1920,2033,2042,1,396,245,201,1,2144,2129,2122,1,1787,1807,2035,1,2026,2023,2052,1,2060,2062,2056,1
0.601,656,1632,2105,2,308,813,1973,2,283,1891,2019,2,391,246,205,2,2123,2110,2104,2,1179,21,994,2,1212,1242,2053,2,2054,2012,2062,2
0.602,1867,1996,2060,1,1938,2033,2095,1,1920,2033,2042,1,396,245,201,1,2144,2129,2122,1,1787,1807,2035,1,2026,2023,2052,1,2060,2062,2056,1
0.603,493,1570,2095,2,234,818,1946,2,217,1863,2021,2,400,249,206,2,2126,2112,2103,2,889,20,790,2,918,1102,2047,2,2036,2000,2060,2
0.604,1867,1996,2060,1,1938,2033,2095,1,1920,2033,2042,1,396,245,201,1,2144,2129,2122,1,1787,1807,2035,1,2026,2023,2052,1,2060,2062,2056,1
0.605,635,1430,2096,2,300,809,1984,2,277,1801,2022,2,393,256,206,2,2123,2116,2105,2,1196,29,1094,2,1219,797,2049,2,2047,1992,2063,2
0.606,1867,1996,2060,1,1938,2033,2095,1,1920,2033,2042,1,396,245,201,1,2144,2129,2122,1,1787,1807,2035,1,2026,2023,2052,1,2060,2062,2056,1
0.607,804,1577,2091,2,376,854,1969,2,349,1866,2025,2,384,248,206,2,2123,2112,2104,2,1103,26,973,2,1133,1095,2051,2,2040,2006,2062,2
0.608,1867,1996,2060,1,1938,2033,2095,1,1920,2033,2042,1,396,245,201,1,2144,2129,2122,1,1787,1807,2035,1,2026,2023,2052,1,2060,2062,2056,1
0.609,615,1488,2081,2,288,853,1948,2,268,1826,2028,2,391,252,207,2,2123,2115,2105,2,1103,25,977,2,1133,906,2047,2,2040,1995,2063,2
0.61,1867,1996,2060,1,1938,2033,2095,1,1920,2033,2042,1,396,245,201,1,2144,2129,2122,1,1787,1807,2035,1,2026,2023,2052,1,2060,2062,2056,1
0.611,545,1488,2081,2,255,853,1948,2,240,1826,2028,2,397,252,207,2,2126,2115,2105,2,1030,25,977,2,1050,906,2047,2,2036,1995,2063,2
0.612,1867,1996,2060,1,1938,2033,2095,1,1920,2033,2042,1,396,245,201,1,2144,2129,2122,1,1787,1807,2035,1,2026,2023,2052,1,2060,2062,2056,1
0.613,545,1524,2078,2,255,897,1955,2,240,1841,2030,2,397,251,207,2,2126,2115,2105,2,1030,21,983,2,1050,982,2050,2,2036,2001,2062,2
0.614,1867,1996,2060,1,1938,2033,2095,1,1920,2033,2042,1,396,245,201,1,2144,2129,2122,1,1787,1807,2035,1,2026,2023,2052,1,2060,2062,2056,1
0.615,576,1505,2078,2,271,910,1955,2,254,1833,2030,2,396,252,207,2,2126,2116,2105,2,1026,21,983,2,1051,943,2050,2,2034,1991,2062,2
0.616,1867,1996,2060,1,1938,2033,2095,1,1920,2033,2042,1,396,245,201,1,2144,2129,2122,1,1787,1807,2035,1,2026,2023,2052,1,2060,2062,2056,1
0.617,626,1505,2070,2,296,910,1943,2,278,1833,2034,2,395,252,208,2,2126,2116,2106,2,1157,21,984,2,1179,943,2055,2,2046,1991,2067,2
0.618,1867,1996,2060,1,1938,2033,2095,1,1920,2033,2042,1,396,245,201,1,2144,2129,2122,1,1787,1807,2035,1,2026,2023,2052,1,2060,2062,2056,1
0.619,470,1485,2064,2,223,927,1931,2,210,1825,2036,2,401,254,209,2,2129,2117,2105,2,874,20,796,2,894,901,2050,2,2029,1984,2064,2
0.62,1867,1996,2060,1,1938,2033,2095,1,1920,2033,2042,1,396,245,201,1,2144,2129,2122,1,1787,1807,2035,1,2026,2023,2052,1,2060,2062,2056,1
0.621,606,1378,2065,2,287,924,1968,2,271,1778,2037,2,396,258,208,2,2127,2120,2107,2,1174,29,1103,2,1187,674,2051,2,2043,1980,2067,2
0.622,1867,1996,2060,1,1938,2033,2095,1,1920,2033,2042,1,396,245,201,1,2144,2129,2122,1,1787,1807,2035,1,2026,2023,2052,1,2060,2062,2056,1
0.623,765,1542,2063,2,360,980,1959,2,342,1852,2040,2,390,251,208,2,2125,2115,2106,2,1093,26,992,2,1112,1012,2053,2,2036,1996,2065,2
0.624,1867,1996,2060,1,1938,2033,2095,1,1920,2033,2042,1,396,245,201,1,2144,2129,2122,1,1787,1807,2035,1,2026,2023,2052,1,2060,2062,2056,1
0.625,588,1470,2056,2,279,980,1947,2,265,1821,2045,2,398,254,208,2,2127,2117,2106,2,1093,25,999,2,1112,864,2051,2,2036,1987,2065,2
0.626,1867,1996,2060,1,1938,2033,2095,1,1920,2033,2042,1,396,245,201,1,2144,2129,2122,1,1787,1807,2035,1,2026,2023,2052,1,2060,2062,2056,1
0.627,521,1509,2056,2,247,1013,1947,2,234,1841,2045,2,396,252,208,2,2125,2115,2106,2,1004,31,999,2,1017,949,2051,2,2033,1981,2065,2
0.628,1867,1996,2060,1,1938,2033,2095,1,1920,2033,2042,1,396,245,201,1,2144,2129,2122,1,1787,1807,2035,1,2026,2023,2052,1,2060,2062,2056,1
0.629,532,1509,2053,2,252,1013,1952,2,239,1841,2050,2,396,252,206,2,2124,2115,2105,2,1032,31,1038,2,1044,949,2052,2,2046,1981,2065,2
0.63,1867,1996,2060,1,1938,2033,2095,1,1920,2033,2042,1,396,245,201,1,2144,2129,2122,1,1787,1807,2035,1,2026,2023,2052,1,2060,2062,2056,1
0.631,532,1489,2051,2,252,1050,1946,2,239,1835,2053,2,396,252,206,2,2124,2113,2104,2,1032,52,987,2,1044,993,2054,2,2046,1991,2062,2
0.632,1867,1996,2060,1,1938,2033,2095,1,1920,2033,2042,1,396,245,201,1,2144,2129,2122,1,1787,1807,2035,1,2026,2023,2052,1,2060,2062,2056,1
0.633,540,1448,2050,2,255,1059,1970,2,243,1819,2055,2,395,254,205,2,2125,2115,2106,2,1063,60,1260,2,1074,882,2054,2,2057,1983,2066,2
0.634,1867,1996,2060,1,1938,2033,2095,1,1920,2033,2042,1,396,245,201,1,2144,2129,2122,1,1787,1807,2035,1,2026,2023,2052,1,2060,2062,2056,1
0.635,635,1600,2049,2,298,1116,1957,2,287,1888,2058,2,390,247,205,2,2123,2111,2105,2,1266,91,1144,2,1274,1179,2056,2,2063,1999,2063,2
0.636,1867,1996,2060,1,1938,2033,2095,1,1920,2033,2042,1,396,245,201,1,2144,2129,2122,1,1787,1807,2035,1,2026,2023,2052,1,2060,2062,2056,1
0.637,482,1519,2043,2,227,1111,1931,2,219,1854,2061,2,396,251,206,2,2125,2113,2103,2,960,87,876,2,971,998,2053,2,2042,1988,2060,2
0.638,1867,1996,2060,1,1938,2033,2095,1,1920,2033,2042,1,396,245,201,1,2144,2129,2122,1,1787,1807,2035,1,2026,2023,2052,1,2060,2062,2056,1
0.639,539,1346,2042,2,252,1081,1954,2,244,1778,2064,2,392,259,206,2,2124,2113,2105,2,1083,125,1161,2,1090,1026,2052,2,2054,1995,2064,2
0.64,1867,1996,2060,1,1938,2033,2095,1,1920,2033,2042,1,396,245,201,1,2144,2129,2122,1,1787,1807,2035,1,2026,2023,2052,1,2060,2062,2056,1
0.641,613,1512,2041,2,287,1143,1939,2,283,1853,2067,2,393,252,206,2,2125,2113,2104,2,1078,125,1016,2,1088,1026,2056,2,2045,1995,2062,2
0.642,1867,1996,2060,1,1938,2033,2095,1,1920,2033,2042,1,396,245,201,1,2144,2129,2122,1,1787,1807,2035,1,2026,2023,2052,1,2060,2062,2056,1
0.643,613,1561,2041,2,287,1185,1939,2,283,1877,2067,2,393,250,206,2,2125,2113,2104,2,1078,161,1016,2,1088,1091,2056,2,2045,1999,2062,2
0.644,1867,1996,2060,1,1938,2033,2095,1,1920,2033,2042,1,396,245,201,1,2144,2129,2122,1,1787,1807,2035,1,2026,2023,2052,1,2060,2062,2056,1
0.645,586,1561,2038,2,274,1185,1944,2,270,1877,2073,2,393,250,206,2,2126,2113,2105,2,1076,161,1122,2,1084,1091,2058,2,2056,1999,2065,2
0.646,1867,1996,2060,1,1938,2033,2095,1,1920,2033,2042,1,396,245,201,1,2144,2129,2122,1,1787,1807,2035,1,2026,2023,2052,1,2060,2062,2056,1
0.647,586,1527,2036,2,274,1199,1942,2,270,1862,2076,2,393,251,207,2,2126,2114,2106,2,1076,186,1108,2,1084,1069,2058,2,2056,2000,2062,2
0.648,1867,1996,2060,1,1938,2033,2095,1,1920,2033,2042,1,396,245,201,1,2144,2129,2122,1,1787,1807,2035,1,2026,2023,2052,1,2060,2062,2056,1
0.649,640,1477,2036,2,298,1196,1942,2,295,1840,2076,2,390,254,207,2,2126,2117,2106,2,1075,175,1108,2,739,941,2058,2,2029,1989,2062,2
0.65,1867,1996,2060,1,1938,2033,2095,1,1920,2033,2042,1,396,245,201,1,2144,2129,2122,1,1787,1807,2035,1,2026,2023,2052,1,2060,2062,2056,1
0.651,694,1621,2034,2,323,1250,1941,2,320,1904,2078,2,388,247,207,2,2126,2113,2106,2,1269,242,1095,2,1031,1222,2060,2,2045,2005,2062,2
0.652,1867,1996,2060,1,1938,2033,2095,1,1920,2033,2042,1,396,245,201,1,2144,2129,2122,1,1787,1807,2035,1,2026,2023,2052,1,2060,2062,2056,1
0.653,525,1538,2030,2,247,1235,1927,2,245,1866,2078,2,398,251,207,2,2129,2116,2104,2,960,215,925,2,797,1038,2056,2,2027,1992,2061,2
0.654,1867,1996,2060,1,1938,2033,2095,1,1920,2033,2042,1,396,245,201,1,2144,2129,2122,1,1787,1807,2035,1,2026,2023,2052,1,2060,2062,2056,1
0.655,564,1365,2026,2,268,1194,1951,2,266,1788,2079,2,397,259,206,2,2129,2120,2106,2,1082,252,1210,2,964,1048,2055,2,2043,1997,2066,2
0.656,1867,1996,2060,1,1938,2033,2095,1,1920,2033,2042,1,396,245,201,1,2144,2129,2122,1,1787,1807,2035,1,2026,2023,2052,1,2060,2062,2056,1
0.657,789,1526,2025,2,288,1253,1943,2,285,1860,2080,2,390,251,206,2,2127,2116,2105,2,1075,252,1111,2,1022,1048,2058,2,2040,1997,2064,2
0.658,1867,1996,2060,1,1938,2033,2095,1,1920,2033,2042,1,396,245,201,1,2144,2129,2122,1,1787,1807,2035,1,2026,2023,2052,1,2060,2062,2056,1
0.659,612,1572,2022,2,288,1287,1951,2,285,1880,2081,2,390,249,205,2,2127,2114,2105,2,1075,293,1196,2,1022,1110,2058,2,2040,2001,2063,2
0.66,1867,1996,2060,1,1938,2033,2095,1,1920,2033,2042,1,396,245,201,1,2144,2129,2122,1,1787,1807,2035,1,2026,2023,2052,1,2060,2062,2056,1
0.661,567,1560,2022,2,269,1293,1951,2,266,1874,2081,2,393,249,205,2,2125,2113,2105,2,1051,298,1196,2,1026,1076,2058,2,2033,1989,2063,2
0.662,1867,1996,2060,1,1938,2033,2095,1,1920,2033,2042,1,396,245,201,1,2144,2129,2122,1,1787,1807,2035,1,2026,2023,2052,1,2060,2062,2056,1
0.663,583,1560,2016,2,279,1293,1952,2,276,1874,2082,2,394,249,205,2,2125,2113,2104,2,1125,298,1270,2,1104,1076,2057,2,2048,1989,2066,2
0.664,1867,1996,2060,1,1938,2033,2095,1,1920,2033,2042,1,396,245,201,1,2144,2129,2122,1,1787,1807,2035,1,2026,2023,2052,1,2060,2062,2056,1
0.665,435,1548,2013,2,209,1300,1947,2,207,1868,2082,2,400,249,205,2,2127,2113,2103,2,845,305,1208,2,834,1044,2054,2,2028,1979,2064,2
0.666,1867,1996,2060,1,1938,2033,2095,1,1920,2033,2042,1,396,245,201,1,2144,2129,2122,1,1787,1807,2035,1,2026,2023,2052,1,2060,2062,2056,1
0.667,495,1455,2008,2,237,1282,1966,2,234,1826,2083,2,396,253,205,2,2124,2116,2105,2,990,257,1430,2,978,846,2055,2,2045,1973,2069,2
0.668,1867,1996,2060,1,1938,2033,2095,1,1920,2033,2042,1,396,245,201,1,2144,2129,2122,1,1787,1807,2035,1,2026,2023,2052,1,2060,2062,2056,1
0.669,636,1601,2011,2,302,1339,1951,2,299,1891,2084,2,388,246,205,2,2121,2111,2103,2,1308,372,1246,2,1293,1145,2059,2,2055,1993,2067,2
0.67,1867,1996,2060,1,1938,2033,2095,1,1920,2033,2042,1,396,245,201,1,2144,2129,2122,1,1787,1807,2035,1,2026,2023,2052,1,2060,2062,2056,1
0.671,487,1543,2011,2,232,1330,1931,2,230,1865,2085,2,395,249,207,2,2124,2113,2104,2,1002,343,1333,2,996,1023,2057,2,2036,1982,2068,2
0.672,1867,1996,2060,1,1938,2033,2095,1,1920,2033,2042,1,396,245,201,1,2144,2129,2122,1,1787,1807,2035,1,2026,2023,2052,1,2060,2062,2056,1
0.673,574,1461,2005,2,273,1324,1949,2,271,1830,2086,2,392,253,206,2,2123,2113,2104,2,1194,374,1333,2,1181,1018,2057,2,2049,1988,2068,2
0.674,1867,1996,2060,1,1938,2033,2095,1,1920,2033,2042,1,396,245,201,1,2144,2129,2122,1,1787,1807,2035,1,2026,2023,2052,1,2060,2062,2056,1
0.675,574,1461,2001,2,273,1324,1951,2,271,1830,2088,2,392,253,205,2,2123,2113,2105,2,1194,374,1413,2,1181,1018,2059,2,2049,1988,2070,2
0.676,1867,1996,2060,1,1938,2033,2095,1,1920,2033,2042,1,396,245,201,1,2144,2129,2122,1,1787,1807,2035,1,2026,2023,2052,1,2060,2062,2056,1
0.677,539,1485,2001,2,258,1344,1951,2,258,1841,2088,2,397,252,205,2,2125,2113,2105,2,1113,387,1413,2,1103,1017,2059,2,2038,1978,2070,2
0.678,1867,1996,2060,1,1938,2033,2095,1,1920,2033,2042,1,396,245,201,1,2144,2129,2122,1,1787,1807,2035,1,2026,2023,2052,1,2060,2062,2056,1
0.679,557,1485,1998,2,267,1344,1941,2,269,1841,2091,2,398,252,206,2,2126,2113,2106,2,1165,387,1436,2,1154,1017,2058,2,2052,1978,2070,2
0.68,1867,1996,2060,1,1938,2033,2095,1,1920,2033,2042,1,396,245,201,1,2144,2129,2122,1,1787,1807,2035,1,2026,2023,2052,1,2060,2062,2056,1
0.681,416,1498,1996,2,200,1361,1933,2,202,1847,2091,2,402,252,207,2,2128,2114,2106,2,871,399,1373,2,867,1010,2056,2,2030,1971,2067,2
0.682,1867,1996,2060,1,1938,2033,2095,1,1920,2033,2042,1,396,245,201,1,2144,2129,2122,1,1787,1807,2035,1,2026,2023,2052,1,2060,2062,2056,1
0.683,476,1425,1991,2,227,1350,1944,2,229,1815,2093,2,398,256,207,2,2126,2117,2108,2,1003,335,1553,2,996,830,2057,2,2047,1966,2070,2
0.684,1867,1996,2060,1,1938,2033,2095,1,1920,2033,2042,1,396,245,201,1,2144,2129,2122,1,1787,1807,2035,1,2026,2023,2052,1,2060,2062,2056,1
0.685,616,1580,1996,2,289,1414,1930,2,294,1885,2096,2,390,249,208,2,2123,2113,2106,2,1317,481,1393,2,1302,1136,2062,2,2059,1987,2067,2
0.686,1867,1996,2060,1,1938,2033,2095,1,1920,2033,2042,1,396,245,201,1,2144,2129,2122,1,1787,1807,2035,1,2026,2023,2052,1,2060,2062,2056,1
0.687,472,1530,1998,2,223,1408,1914,2,228,1864,2097,2,399,252,209,2,2127,2115,2105,2,1008,442,1457,2,1001,1023,2059,2,2038,1977,2068,2
0.688,1867,1996,2060,1,1938,2033,2095,1,1920,2033,2042,1,396,245,201,1,2144,2129,2122,1,1787,1807,2035,1,2026,2023,2052,1,2060,2062,2056,1
0.689,557,1299,1991,2,261,1411,1925,2,268,1839,2099,2,393,253,208,2,2125,2115,2107,2,1195,473,1457,2,1180,1027,2059,2,2052,1986,2068,2
0.69,1867,1996,2060,1,1938,2033,2095,1,1920,2033,2042,1,396,245,201,1,2144,2129,2122,1,1787,1807,2035,1,2026,2023,2052,1,2060,2062,2056,1
0.691,530,1472,1988,2,249,1411,1928,2,255,1839,2103,2,394,253,207,2,2125,2115,2107,2,1129,473,1529,2,1116,1027,2062,2,2061,1986,2069,2
0.692,1867,1996,2060,1,1938,2033,2095,1,1920,2033,2042,1,396,245,201,1,2144,2129,2122,1,1787,1807,2035,1,2026,2023,2052,1,2060,2062,2056,1
0.693,530,1509,1988,2,249,1445,1927,2,255,1858,2105,2,394,250,206,2,2125,2113,2106,2,1129,504,1525,2,1116,1048,2063,2,2061,1992,2066,2
0.694,1867,1996,2060,1,1938,2033,2095,1,1920,2033,2042,1,396,245,201,1,2144,2129,2122,1,1787,1807,2035,1,2026,2023,2052,1,2060,2062,2056,1
0.695,561,1488,1988,2,262,1448,1927,2,271,1850,2105,2,393,251,206,2,2125,2114,2106,2,1102,477,1525,2,1093,976,2063,2,2049,1980,2066,2
0.696,1867,1996,2060,1,1938,2033,2095,1,1920,2033,2042,1,396,245,201,1,2144,2129,2122,1,1787,1807,2035,1,2026,2023,2052,1,2060,2062,2056,1
0.697,610,1632,1989,2,286,1508,1924,2,296,1915,2107,2,392,244,205,2,2124,2110,2105,2,1235,625,1481,2,1222,1256,2066,2,2059,1999,2064,2
0.698,1867,1996,2060,1,1938,2033,2095,1,1920,2033,2042,1,396,245,201,1,2144,2129,2122,1,1787,1807,2035,1,2026,2023,2052,1,2060,2062,2056,1
0.699,461,1523,1987,2,218,1477,1919,2,225,1866,2107,2,398,250,206,2,2125,2113,2104,2,928,507,1403,2,922,1014,2061,2,2034,1986,2062,2
0.7,1867,1996,2060,1,1938,2033,2095,1,1920,2033,2042,1,396,245,201,1,2144,2129,2122,1,1787,1807,2035,1,2026,2023,2052,1,2060,2062,2056,1
0.701,542,1394,1980,2,255,1440,1930,2,263,1809,2109,2,392,256,206,2,2123,2117,2106,2,1126,368,1577,2,1110,729,2061,2,2050,1977,2067,2
0.702,1867,1996,2060,1,1938,2033,2095,1,1920,2033,2042,1,396,245,201,1,2144,2129,2122,1,1787,1807,2035,1,2026,2023,2052,1,2060,2062,2056,1
0.703,719,1552,1982,2,335,1507,1930,2,347,1881,2111,2,382,249,206,2,2124,2112,2105,2,1092,551,1535,2,1081,1053,2064,2,2041,1993,2065,2
0.704,1867,1996,2060,1,1938,2033,2095,1,1920,2033,2042,1,396,245,201,1,2144,2129,2122,1,1787,1807,2035,1,2026,2023,2052,1,2060,2062,2056,1
0.705,556,1612,1982,2,262,1544,1930,2,270,1908,2111,2,391,247,206,2,2124,2111,2105,2,1092,631,1535,2,1081,1170,2064,2,2041,1998,2065,2
0.706,1867,1996,2060,1,1938,2033,2095,1,1920,2033,2042,1,396,245,201,1,2144,2129,2122,1,1787,1807,2035,1,2026,2023,2052,1,2060,2062,2056,1
0.707,524,1612,1978,2,249,1544,1938,2,257,1908,2114,2,394,247,206,2,2125,2111,2105,2,1050,631,1614,2,1038,1170,2067,2,2053,1998,2068,2
0.708,1867,1996,2060,1,1938,2033,2095,1,1920,2033,2042,1,396,245,201,1,2144,2129,2122,1,1787,1807,2035,1,2026,2023,2052,1,2060,2062,2056,1
0.709,524,1588,1977,2,249,1548,1940,2,257,1897,2115,2,394,248,206,2,2125,2112,2105,2,1050,624,1617,2,1038,1120,2067,2,2053,1999,2066,2
0.71,1867,1996,2060,1,1938,2033,2095,1,1920,2033,2042,1,396,245,201,1,2144,2129,2122,1,1787,1807,2035,1,2026,2023,2052,1,2060,2062,2056,1
0.711,547,1550,1977,2,258,1541,1940,2,266,1880,2115,2,391,250,206,2,2125,2114,2105,2,1060,588,1617,2,1049,1041,2067,2,2044,1985,2066,2
0.712,1867,1996,2060,1,1938,2033,2095,1,1920,2033,2042,1,396,245,201,1,2144,2129,2122,1,1787,1807,2035,1,2026,2023,2052,1,2060,2062,2056,1
0.713,588,1676,1976,2,277,1595,1942,2,286,1937,2116,2,390,245,206,2,2125,2111,2105,2,1193,746,1621,2,1175,1303,2067,2,2057,2003,2065,2
0.714,1867,1996,2060,1,1938,2033,2095,1,1920,2033,2042,1,396,245,201,1,2144,2129,2122,1,1787,1807,2035,1,2026,2023,2052,1,2060,2062,2056,1
0.715,443,1564,1975,2,212,1558,1939,2,219,1886,2115,2,400,250,207,2,2129,2114,2105,2,900,613,1548,2,889,1066,2062,2,2033,1988,2063,2
0.716,1867,1996,2060,1,1938,2033,2095,1,1920,2033,2042,1,396,245,201,1,2144,2129,2122,1,1787,1807,2035,1,2026,2023,2052,1,2060,2062,2056,1
0.717,518,1435,1968,2,247,1515,1948,2,257,1827,2117,2,398,256,207,2,2129,2118,2107,2,1091,456,1687,2,1070,791,2061,2,2049,1978,2069,2
0.718,1867,1996,2060,1,1938,2033,2095,1,1920,2033,2042,1,396,245,201,1,2144,2129,2122,1,1787,1807,2035,1,2026,2023,2052,1,2060,2062,2056,1
0.719,685,1582,1970,2,326,1578,1946,2,339,1894,2118,2,391,250,207,2,2127,2114,2106,2,1077,652,1649,2,1059,1100,2064,2,2040,1995,2067,2
0.72,1867,1996,2060,1,1938,2033,2095,1,1920,2033,2042,1,396,245,201,1,2144,2129,2122,1,1787,1807,2035,1,2026,2023,2052,1,2060,2062,2056,1
0.721,525,1499,1979,2,250,1551,1943,2,261,1856,2118,2,398,254,208,2,2130,2117,2107,2,1077,554,1665,2,1059,927,2060,2,2040,1982,2068,2
0.722,1867,1996,2060,1,1938,2033,2095,1,1920,2033,2042,1,396,245,201,1,2144,2129,2122,1,1787,1807,2035,1,2026,2023,2052,1,2060,2062,2056,1
0.723,475,1530,1970,2,227,1571,1943,2,239,1871,2118,2,401,253,208,2,2130,2116,2107,2,1017,611,1665,2,995,996,2060,2,2033,1973,2068,2
0.724,1867,1996,2060,1,1938,2033,2095,1,1920,2033,2042,1,396,245,201,1,2144,2129,2122,1,1787,1807,2035,1,2026,2023,2052,1,2060,2062,2056,1
0.725,489,1530,1966,2,234,1571,1942,2,245,1871,2120,2,398,253,207,2,2128,2116,2107,2,1050,611,1691,2,1027,996,2062,2,2048,1973,2070,2
0.726,1867,1996,2060,1,1938,2033,2095,1,1920,2033,2042,1,396,245,201,1,2144,2129,2122,1,1787,1807,2035,1,2026,2023,2052,1,2060,2062,2056,1
0.727,489,1501,1966,2,234,1574,1940,2,245,1858,2121,2,398,252,207,2,2128,2114,2106,2,1050,648,1674,2,1027,1021,2064,2,2048,1985,2067,2
0.728,1867,1996,2060,1,1938,2033,2095,1,1920,2033,2042,1,396,245,201,1,2144,2129,2122,1,1787,1807,2035,1,2026,2023,2052,1,2060,2062,2056,1
0.729,503,1456,1958,2,240,1563,1943,2,249,1838,2123,2,395,254,206,2,2126,2115,2107,2,1084,578,1788,2,1061,902,2063,2,2060,1975,2072,2
0.73,1867,1996,2060,1,1938,2033,2095,1,1920,2033,2042,1,396,245,201,1,2144,2129,2122,1,1787,1807,2035,1,2026,2023,2052,1,2060,2062,2056,1
0.731,597,1607,1961,2,283,1627,1938,2,294,1906,2123,2,389,246,205,2,2123,2111,2105,2,1302,777,1743,2,1269,1197,2066,2,2068,1995,2069,2
0.732,1867,1996,2060,1,1938,2033,2095,1,1920,2033,2042,1,396,245,201,1,2144,2129,2122,1,1787,1807,2035,1,2026,2023,2052,1,2060,2062,2056,1
0.733,455,1523,1964,2,219,1600,1929,2,228,1869,2122,2,398,250,206,2,2126,2113,2103,2,988,659,1634,2,967,1010,2064,2,2041,1981,2066,2
0.734,1867,1996,2060,1,1938,2033,2095,1,1920,2033,2042,1,396,245,201,1,2144,2129,2122,1,1787,1807,2035,1,2026,2023,2052,1,2060,2062,2056,1
0.735,513,1345,1956,2,246,1536,1931,2,257,1789,2124,2,396,258,205,2,2125,2113,2105,2,1117,696,1749,2,1090,1035,2062,2,2054,1988,2070,2
0.736,1867,1996,2060,1,1938,2033,2095,1,1920,2033,2042,1,396,245,201,1,2144,2129,2122,1,1787,1807,2035,1,2026,2023,2052,1,2060,2062,2056,1
0.737,592,1511,1961,2,280,1609,1927,2,295,1864,2125,2,390,251,205,2,2124,2113,2104,2,1111,696,1692,2,1089,1035,2066,2,2044,1988,2067,2
0.738,1867,1996,2060,1,1938,2033,2095,1,1920,2033,2042,1,396,245,201,1,2144,2129,2122,1,1787,1807,2035,1,2026,2023,2052,1,2060,2062,2056,1
0.739,592,1558,1961,2,280,1640,1927,2,295,1886,2125,2,390,249,205,2,2124,2113,2104,2,1111,743,1692,2,1089,1091,2066,2,2044,1993,2067,2
0.74,1867,1996,2060,1,1938,2033,2095,1,1920,2033,2042,1,396,245,201,1,2144,2129,2122,1,1787,1807,2035,1,2026,2023,2052,1,2060,2062,2056,1
0.741,565,1558,1958,2,267,1640,1924,2,281,1886,2127,2,390,249,206,2,2124,2113,2105,2,1113,743,1738,2,1091,1091,2068,2,2058,1993,2069,2
0.742,1867,1996,2060,1,1938,2033,2095,1,1920,2033,2042,1,396,245,201,1,2144,2129,2122,1,1787,1807,2035,1,2026,2023,2052,1,2060,2062,2056,1
0.743,565,1520,1958,2,267,1635,1922,2,281,1869,2127,2,390,251,205,2,2124,2113,2104,2,1113,745,1732,2,1091,1071,2068,2,2058,1994,2067,2
0.744,1867,1996,2060,1,1938,2033,2095,1,1920,2033,2042,1,396,245,201,1,2144,2129,2122,1,1787,1807,2035,1,2026,2023,2052,1,2060,2062,2056,1
0.745,589,1475,1949,2,279,1623,1923,2,295,1849,2129,2,392,254,205,2,2125,2115,2106,2,1207,664,1831,2,1179,949,2065,2,2066,1981,2072,2
0.746,1867,1996,2060,1,1938,2033,2095,1,1920,2033,2042,1,396,245,201,1,2144,2129,2122,1,1787,1807,2035,1,2026,2023,2052,1,2060,2062,2056,1
0.747,649,1620,1952,2,308,1687,1922,2,326,1914,2130,2,391,248,205,2,2125,2112,2106,2,1377,871,1798,2,1340,1232,2068,2,2072,1999,2068,2
0.748,1867,1996,2060,1,1938,2033,2095,1,1920,2033,2042,1,396,245,201,1,2144,2129,2122,1,1787,1807,2035,1,2026,2023,2052,1,2060,2062,2056,1
0.749,491,1536,1957,2,234,1657,1919,2,248,1876,2128,2,397,252,206,2,2127,2115,2104,2,1036,740,1709,2,1013,1043,2065,2,2044,1984,2065,2
0.75,1867,1996,2060,1,1938,2033,2095,1,1920,2033,2042,1,396,245,201,1,2144,2129,2122,1,1787,1807,2035,1,2026,2023,2052,1,2060,2062,2056,1
0.751,532,1364,1948,2,252,1592,1921,2,267,1799,2130,2,394,260,206,2,2126,2119,2107,2,1143,763,1807,2,1116,1053,2064,2,2057,1989,2069,2
0.752,1867,1996,2060,1,1938,2033,2095,1,1920,2033,2042,1,396,245,201,1,2144,2129,2122,1,1787,1807,2035,1,2026,2023,2052,1,2060,2062,2056,1
0.753,749,1526,1953,2,273,1664,1921,2,289,1872,2130,2,390,253,206,2,2125,2115,2105,2,1120,763,1761,2,1098,1053,2068,2,2047,1989,2066,2
0.754,1867,1996,2060,1,1938,2033,2095,1,1920,2033,2042,1,396,245,201,1,2144,2129,2122,1,1787,1807,2035,1,2026,2023,2052,1,2060,2062,2056,1
0.755,581,1573,1950,2,273,1692,1923,2,289,1893,2131,2,390,250,206,2,2125,2114,2106,2,1120,818,1790,2,1098,1116,2069,2,2047,1994,2065,2
0.756,1867,1996,2060,1,1938,2033,2095,1,1920,2033,2042,1,396,245,201,1,2144,2129,2122,1,1787,1807,2035,1,2026,2023,2052,1,2060,2062,2056,1
0.757,538,1560,1950,2,253,1690,1923,2,267,1886,2131,2,389,250,206,2,2124,2115,2106,2,1085,800,1790,2,1067,1081,2069,2,2039,1981,2065,2
0.758,1867,1996,2060,1,1938,2033,2095,1,1920,2033,2042,1,396,245,201,1,2144,2129,2122,1,1787,1807,2035,1,2026,2023,2052,1,2060,2062,2056,1
0.759,555,1560,1950,2,261,1690,1926,2,275,1886,2131,2,388,250,206,2,2124,2115,2106,2,1160,800,1811,2,1136,1081,2066,2,2055,1981,2068,2
0.76,1867,1996,2060,1,1938,2033,2095,1,1920,2033,2042,1,396,245,201,1,2144,2129,2122,1,1787,1807,2035,1,2026,2023,2052,1,2060,2062,2056,1
0.761,416,1548,1950,2,198,1690,1927,2,210,1880,2131,2,398,250,206,2,2127,2114,2104,2,870,784,1783,2,854,1049,2064,2,2029,1971,2065,2
0.762,1867,1996,2060,1,1938,2033,2095,1,1920,2033,2042,1,396,245,201,1,2144,2129,2122,1,1787,1807,2035,1,2026,2023,2052,1,2060,2062,2056,1
0.763,473,1455,1941,2,225,1657,1930,2,239,1838,2134,2,397,254,206,2,2127,2117,2106,2,1019,635,1869,2,996,848,2062,2,2047,1965,2070,2
0.764,1867,1996,2060,1,1938,2033,2095,1,1920,2033,2042,1,396,245,201,1,2144,2129,2122,1,1787,1807,2035,1,2026,2023,2052,1,2060,2062,2056,1
0.765,610,1601,1950,2,288,1723,1931,2,305,1904,2134,2,388,247,206,2,2124,2113,2104,2,1348,873,1797,2,1313,1150,2068,2,2060,1986,2067,2
0.766,1867,1996,2060,1,1938,2033,2095,1,1920,2033,2042,1,396,245,201,1,2144,2129,2122,1,1787,1807,2035,1,2026,2023,2052,1,2060,2062,2056,1
0.767,471,1539,1958,2,225,1702,1931,2,238,1877,2132,2,396,250,206,2,2126,2115,2104,2,1030,778,1830,2,1007,1020,2065,2,2036,1974,2069,2
0.768,1867,1996,2060,1,1938,2033,2095,1,1920,2033,2042,1,396,245,201,1,2144,2129,2122,1,1787,1807,2035,1,2026,2023,2052,1,2060,2062,2056,1
0.769,427,1539,1946,2,206,1702,1932,2,218,1877,2134,2,400,250,206,2,2126,2115,2104,2,937,778,1830,2,913,1020,2065,2,2028,1974,2069,2
0.77,1867,1996,2060,1,1938,2033,2095,1,1920,2033,2042,1,396,245,201,1,2144,2129,2122,1,1787,1807,2035,1,2026,2023,2052,1,2060,2062,2056,1
0.771,427,1587,1943,2,206,1734,1933,2,218,1898,2136,2,400,247,206,2,2126,2113,2104,2,937,863,1853,2,913,1115,2065,2,2028,1987,2067,2
0.772,1867,1996,2060,1,1938,2033,2095,1,1920,2033,2042,1,396,245,201,1,2144,2129,2122,1,1787,1807,2035,1,2026,2023,2052,1,2060,2062,2056,1
0.773,457,1575,1943,2,220,1734,1933,2,233,1893,2136,2,398,248,206,2,2125,2113,2104,2,994,852,1853,2,970,1091,2065,2,2026,1975,2067,2
0.774,1867,1996,2060,1,1938,2033,2095,1,1920,2033,2042,1,396,245,201,1,2144,2129,2122,1,1787,1807,2035,1,2026,2023,2052,1,2060,2062,2056,1
0.775,494,1575,1943,2,238,1734,1932,2,252,1893,2137,2,396,248,207,2,2124,2113,2105,2,1082,852,1867,2,1053,1091,2065,2,2043,1975,2069,2
0.776,1867,1996,2060,1,1938,2033,2095,1,1920,2033,2042,1,396,245,201,1,2144,2129,2122,1,1787,1807,2035,1,2026,2023,2052,1,2060,2062,2056,1
0.777,494,1475,1946,2,238,1703,1930,2,252,1849,2137,2,396,253,207,2,2124,2114,2105,2,1082,837,1845,2,1053,1402,2068,2,2043,1997,2067,2
0.778,1867,1996,2060,1,1938,2033,2095,1,1920,2033,2042,1,396,245,201,1,2144,2129,2122,1,1787,1807,2035,1,2026,2023,2052,1,2060,2062,2056,1
0.779,528,1405,1936,2,253,1678,1928,2,268,1818,2139,2,394,256,206,2,2124,2117,2107,2,1165,678,1917,2,1132,1098,2065,2,2057,1983,2072,2
0.78,1867,1996,2060,1,1938,2033,2095,1,1920,2033,2042,1,396,245,201,1,2144,2129,2122,1,1787,1807,2035,1,2026,2023,2052,1,2060,2062,2056,1
0.781,649,1566,1942,2,309,1751,1927,2,329,1891,2139,2,388,250,206,2,2123,2114,2106,2,1451,927,1881,2,1403,1326,2069,2,2065,1999,2069,2
0.782,1867,1996,2060,1,1938,2033,2095,1,1920,2033,2042,1,396,245,201,1,2144,2129,2122,1,1787,1807,2035,1,2026,2023,2052,1,2060,2062,2056,1
0.783,495,1518,1951,2,236,1736,1926,2,253,1870,2137,2,398,253,207,2,2127,2116,2108,2,1106,831,1894,2,1073,1152,2067,2,2041,1984,2070,2
0.784,1867,1996,2060,1,1938,2033,2095,1,1920,2033,2042,1,396,245,201,1,2144,2129,2122,1,1787,1807,2035,1,2026,2023,2052,1,2060,2062,2056,1
0.785,571,1453,1939,2,272,1718,1922,2,291,1843,2140,2,395,255,207,2,2126,2115,2108,2,1281,840,1894,2,1237,1087,2067,2,2054,1987,2070,2
0.786,1867,1996,2060,1,1938,2033,2095,1,1920,2033,2042,1,396,245,201,1,2144,2129,2122,1,1787,1807,2035,1,2026,2023,2052,1,2060,2062,2056,1
0.787,537,1453,1937,2,257,1718,1918,2,276,1843,2144,2,398,255,207,2,2127,2115,2107,2,1206,840,1916,2,1166,1087,2068,2,2064,1987,2072,2
0.788,1867,1996,2060,1,1938,2033,2095,1,1920,2033,2042,1,396,245,201,1,2144,2129,2122,1,1787,1807,2035,1,2026,2023,2052,1,2060,2062,2056,1
0.789,537,1494,1937,2,257,1744,1917,2,276,1861,2145,2,398,252,207,2,2127,2115,2107,2,1206,866,1914,2,1166,1077,2069,2,2064,1991,2069,2
0.79,1867,1996,2060,1,1938,2033,2095,1,1920,2033,2042,1,396,245,201,1,2144,2129,2122,1,1787,1807,2035,1,2026,2023,2052,1,2060,2062,2056,1
0.791,563,1473,1937,2,269,1739,1917,2,292,1852,2145,2,398,253,207,2,2129,2116,2107,2,1152,802,1914,2,1117,987,2069,2,2048,1978,2069,2
0.792,1867,1996,2060,1,1938,2033,2095,1,1920,2033,2042,1,396,245,201,1,2144,2129,2122,1,1787,1807,2035,1,2026,2023,2052,1,2060,2062,2056,1
0.793,609,1621,1938,2,288,1808,1917,2,313,1919,2145,2,393,246,205,2,2127,2112,2106,2,1296,1042,1913,2,1253,1264,2070,2,2061,1997,2067,2
0.794,1867,1996,2060,1,1938,2033,2095,1,1920,2033,2042,1,396,245,201,1,2144,2129,2122,1,1787,1807,2035,1,2026,2023,2052,1,2060,2062,2056,1
0.795,460,1508,1941,2,219,1761,1917,2,237,1868,2143,2,398,251,206,2,2127,2115,2104,2,975,828,1873,2,947,1004,2066,2,2036,1983,2064,2
0.796,1867,1996,2060,1,1938,2033,2095,1,1920,2033,2042,1,396,245,201,1,2144,2129,2122,1,1787,1807,2035,1,2026,2023,2052,1,2060,2062,2056,1
0.797,542,1374,1930,2,258,1706,1914,2,277,1808,2145,2,393,257,205,2,2124,2119,2106,2,1182,595,1937,2,1142,718,2064,2,2051,1990,2069,2
0.798,1867,1996,2060,1,1938,2033,2095,1,1920,2033,2042,1,396,245,201,1,2144,2129,2122,1,1787,1807,2035,1,2026,2023,2052,1,2060,2062,2056,1
0.799,723,1537,1935,2,342,1781,1917,2,369,1882,2145,2,392,250,206,2,2125,2114,2105,2,1137,879,1919,2,1104,1045,2068,2,2042,1990,2067,2
0.8,1867,1996,2060,1,1938,2033,2095,1,1920,2033,2042,1,396,245,201,1,2144,2129,2122,1,1787,1807,2035,1,2026,2023,2052,1,2060,2062,2056,1
0.801,556,1595,1935,2,263,1812,1917,2,284,1908,2145,2,392,247,206,2,2125,2112,2105,2,1137,976,1919,2,1104,1149,2068,2,2042,1995,2067,2
0.802,1867,1996,2060,1,1938,2033,2095,1,1920,2033,2042,1,396,245,201,1,2144,2129,2122,1,1787,1807,2035,1,2026,2023,2052,1,2060,2062,2056,1
0.803,526,1595,1931,2,249,1812,1919,2,268,1908,2147,2,392,247,204,2,2124,2112,2105,2,1098,976,1947,2,1068,1149,2071,2,2056,1995,2070,2
0.804,1867,1996,2060,1,1938,2033,2095,1,1920,2033,2042,1,396,245,201,1,2144,2129,2122,1,1787,1807,2035,1,2026,2023,2052,1,2060,2062,2056,1
0.805,526,1568,1931,2,249,1804,1922,2,268,1894,2147,2,392,248,204,2,2124,2112,2105,2,1098,951,1947,2,1068,1108,2070,2,2056,1995,2067,2
0.806,1867,1996,2060,1,1938,2033,2095,1,1920,2033,2042,1,396,245,201,1,2144,2129,2122,1,1787,1807,2035,1,2026,2023,2052,1,2060,2062,2056,1
0.807,553,1527,1931,2,261,1788,1922,2,280,1876,2147,2,389,251,204,2,2124,2114,2105,2,1097,874,1947,2,1070,1014,2070,2,2045,1980,2067,2
0.808,1867,1996,2060,1,1938,2033,2095,1,1920,2033,2042,1,396,245,201,1,2144,2129,2122,1,1787,1807,2035,1,2026,2023,2052,1,2060,2062,2056,1
0.809,600,1659,1932,2,285,1849,1925,2,304,1936,2147,2,387,245,205,2,2123,2111,2105,2,1250,1111,1948,2,1212,1283,2070,2,2057,1998,2065,2
0.81,1867,1996,2060,1,1938,2033,2095,1,1920,2033,2042,1,396,245,201,1,2144,2129,2122,1,1787,1807,2035,1,2026,2023,2052,1,2060,2062,2056,1
0.811,451,1537,1935,2,216,1796,1928,2,232,1881,2144,2,397,251,207,2,2126,2114,2104,2,945,884,1915,2,919,1023,2065,2,2032,1983,2063,2
0.812,1867,1996,2060,1,1938,2033,2095,1,1920,2033,2042,1,396,245,201,1,2144,2129,2122,1,1787,1807,2035,1,2026,2023,2052,1,2060,2062,2056,1
0.813,533,1396,1923,2,254,1735,1927,2,272,1817,2145,2,392,258,207,2,2124,2119,2107,2,1159,633,1969,2,1122,730,2063,2,2049,1989,2069,2
0.814,1867,1996,2060,1,1938,2033,2095,1,1920,2033,2042,1,396,245,201,1,2144,2129,2122,1,1787,1807,2035,1,2026,2023,2052,1,2060,2062,2056,1
0.815,713,1553,1929,2,339,1807,1931,2,364,1887,2145,2,393,251,207,2,2126,2115,2106,2,1125,923,1955,2,1093,1053,2067,2,2040,1989,2067,2
0.816,1867,1996,2060,1,1938,2033,2095,1,1920,2033,2042,1,396,245,201,1,2144,2129,2122,1,1787,1807,2035,1,2026,2023,2052,1,2060,2062,2056,1
0.817,548,1604,1926,2,261,1834,1931,2,280,1909,2145,2,393,248,207,2,2126,2114,2106,2,1125,1018,1971,2,1093,1155,2067,2,2040,1994,2066,2
0.818,1867,1996,2060,1,1938,2033,2095,1,1920,2033,2042,1,396,245,201,1,2144,2129,2122,1,1787,1807,2035,1,2026,2023,2052,1,2060,2062,2056,1
0.819,504,1593,1926,2,242,1831,1931,2,259,1904,2145,2,396,249,207,2,2126,2114,2106,2,1082,1004,1971,2,1048,1133,2067,2,2031,1979,2066,2
0.82,1867,1996,2060,1,1938,2033,2095,1,1920,2033,2042,1,396,245,201,1,2144,2129,2122,1,1787,1807,2035,1,2026,2023,2052,1,2060,2062,2056,1
0.821,518,1593,1926,2,250,1831,1932,2,268,1904,2145,2,397,249,207,2,2126,2114,2106,2,1128,1004,1981,2,1092,1133,2065,2,2047,1979,2069,2
0.822,1867,1996,2060,1,1938,2033,2095,1,1920,2033,2042,1,396,245,201,1,2144,2129,2122,1,1787,1807,2035,1,2026,2023,2052,1,2060,2062,2056,1
0.823,518,1507,1929,2,250,1798,1932,2,268,1865,2145,2,397,253,207,2,2126,2115,2106,2,1128,968,1973,2,1092,1083,2068,2,2047,1985,2067,2
0.824,1867,1996,2060,1,1938,2033,2095,1,1920,2033,2042,1,396,245,201,1,2144,2129,2122,1,1787,1807,2035,1,2026,2023,2052,1,2060,2062,2056,1
0.825,569,1446,1918,2,273,1773,1927,2,293,1838,2147,2,393,256,206,2,2126,2117,2108,2,1266,817,2015,2,1221,914,2065,2,2060,1973,2072,2
0.826,1867,1996,2060,1,1938,2033,2095,1,1920,2033,2042,1,396,245,201,1,2144,2129,2122,1,1787,1807,2035,1,2026,2023,2052,1,2060,2062,2056,1
0.827,654,1598,1928,2,313,1843,1929,2,337,1906,2147,2,389,248,206,2,2124,2113,2105,2,1477,1081,1986,2,1418,1203,2070,2,2068,1992,2069,2
0.828,1867,1996,2060,1,1938,2033,2095,1,1920,2033,2042,1,396,245,201,1,2144,2129,2122,1,1787,1807,2035,1,2026,2023,2052,1,2060,2062,2056,1
0.829,495,1501,1936,2,237,1802,1930,2,256,1862,2144,2,395,252,206,2,2126,2115,2103,2,1118,877,1951,2,1078,978,2065,2,2042,1978,2071,2
0.83,1867,1996,2060,1,1938,2033,2095,1,1920,2033,2042,1,396,245,201,1,2144,2129,2122,1,1787,1807,2035,1,2026,2023,2052,1,2060,2062,2056,1
0.831,552,1299,1924,2,264,1715,1923,2,284,1851,2147,2,391,253,206,2,2124,2114,2105,2,1253,919,1995,2,1206,1012,2065,2,2055,1985,2071,2
0.832,1867,1996,2060,1,1938,2033,2095,1,1920,2033,2042,1,396,245,201,1,2144,2129,2122,1,1787,1807,2035,1,2026,2023,2052,1,2060,2062,2056,1
0.833,552,1475,1920,2,264,1798,1916,2,284,1851,2150,2,391,253,205,2,2124,2114,2105,2,1253,919,2017,2,1206,1012,2068,2,2055,1985,2072,2
0.834,1867,1996,2060,1,1938,2033,2095,1,1920,2033,2042,1,396,245,201,1,2144,2129,2122,1,1787,1807,2035,1,2026,2023,2052,1,2060,2062,2056,1
0.835,496,1507,1920,2,236,1816,1916,2,255,1866,2150,2,392,251,205,2,2123,2114,2105,2,1131,950,2017,2,1089,1042,2068,2,2041,1973,2072,2
0.836,1867,1996,2060,1,1938,2033,2095,1,1920,2033,2042,1,396,245,201,1,2144,2129,2122,1,1787,1807,2035,1,2026,2023,2052,1,2060,2062,2056,1
0.837,508,1507,1921,2,242,1816,1912,2,261,1866,2151,2,392,251,205,2,2123,2114,2105,2,1153,950,2019,2,1111,1042,2068,2,2054,1973,2072,2
0.838,1867,1996,2060,1,1938,2033,2095,1,1920,2033,2042,1,396,245,201,1,2144,2129,2122,1,1787,1807,2035,1,2026,2023,2052,1,2060,2062,2056,1
0.839,508,1474,1924,2,242,1810,1912,2,261,1853,2151,2,392,254,205,2,2123,2114,2105,2,1153,957,2012,2,1111,1041,2069,2,2054,1981,2068,2
0.84,1867,1996,2060,1,1938,2033,2095,1,1920,2033,2042,1,396,245,201,1,2144,2129,2122,1,1787,1807,2035,1,2026,2023,2052,1,2060,2062,2056,1
0.841,556,1429,1914,2,265,1793,1905,2,288,1833,2153,2,392,256,205,2,2123,2115,2107,2,1272,822,2045,2,1223,896,2066,2,2065,1971,2074,2
0.842,1867,1996,2060,1,1938,2033,2095,1,1920,2033,2042,1,396,245,201,1,2144,2129,2122,1,1787,1807,2035,1,2026,2023,2052,1,2060,2062,2056,1
0.843,639,1587,1920,2,302,1868,1907,2,328,1904,2153,2,386,248,205,2,2121,2111,2106,2,1469,1100,2032,2,1407,1193,2069,2,2072,1991,2070,2
0.844,1867,1996,2060,1,1938,2033,2095,1,1920,2033,2042,1,396,245,201,1,2144,2129,2122,1,1787,1807,2035,1,2026,2023,2052,1,2060,2062,2056,1
0.845,486,1498,1929,2,233,1830,1913,2,253,1864,2151,2,397,252,206,2,2125,2114,2105,2,1109,905,1997,2,1066,984,2068,2,2043,1978,2070,2
0.846,1867,1996,2060,1,1938,2033,2095,1,1920,2033,2042,1,396,245,201,1,2144,2129,2122,1,1787,1807,2035,1,2026,2023,2052,1,2060,2062,2056,1
0.847,540,1380,1918,2,257,1779,1907,2,279,1811,2154,2,393,251,206,2,2125,2114,2107,2,1238,967,2031,2,1190,1046,2065,2,2057,1987,2070,2
0.848,1867,1996,2060,1,1938,2033,2095,1,1920,2033,2042,1,396,245,201,1,2144,2129,2122,1,1787,1807,2035,1,2026,2023,2052,1,2060,2062,2056,1
0.849,502,1543,1916,2,239,1857,1907,2,259,1886,2157,2,394,251,206,2,2125,2114,2108,2,1148,967,2046,2,1108,1046,2068,2,2065,1987,2071,2
0.85,1867,1996,2060,1,1938,2033,2095,1,1920,2033,2042,1,396,245,201,1,2144,2129,2122,1,1787,1807,2035,1,2026,2023,2052,1,2060,2062,2056,1
0.851,502,1561,1917,2,239,1871,1909,2,259,1895,2157,2,394,251,206,2,2125,2115,2108,2,1148,994,2046,2,1108,1069,2069,2,2065,1992,2068,2
0.852,1867,1996,2060,1,1938,2033,2095,1,1920,2033,2042,1,396,245,201,1,2144,2129,2122,1,1787,1807,2035,1,2026,2023,2052,1,2060,2062,2056,1
0.853,517,1536,1917,2,244,1862,1909,2,266,1884,2157,2,392,252,206,2,2127,2116,2108,2,1117,949,2046,2,1082,1016,2069,2,2049,1978,2068,2
0.854,1867,1996,2060,1,1938,2033,2095,1,1920,2033,2042,1,396,245,201,1,2144,2129,2122,1,1787,1807,2035,1,2026,2023,2052,1,2060,2062,2056,1
0.855,553,1536,1923,2,261,1862,1917,2,285,1884,2156,2,392,252,206,2,2127,2116,2107,2,1226,949,2043,2,1183,1016,2063,2,2062,1978,2073,2
0.856,1867,1996,2060,1,1938,2033,2095,1,1920,2033,2042,1,396,245,201,1,2144,2129,2122,1,1787,1807,2035,1,2026,2023,2052,1,2060,2062,2056,1
0.857,416,1515,1926,2,197,1854,1922,2,215,1875,2155,2,398,253,207,2,2128,2117,2106,2,922,912,2026,2,894,972,2062,2,2035,1968,2068,2
0.858,1867,1996,2060,1,1938,2033,2095,1,1920,2033,2042,1,396,245,201,1,2144,2129,2122,1,1787,1807,2035,1,2026,2023,2052,1,2060,2062,2056,1
0.859,488,1408,1914,2,234,1806,1918,2,254,1827,2157,2,397,257,207,2,2127,2120,2108,2,1098,693,2054,2,1058,744,2060,2,2050,1962,2072,2
0.86,1867,1996,2060,1,1938,2033,2095,1,1920,2033,2042,1,396,245,201,1,2144,2129,2122,1,1787,1807,2035,1,2026,2023,2052,1,2060,2062,2056,1
0.861,641,1565,1918,2,305,1881,1923,2,333,1898,2157,2,389,249,206,2,2125,2114,2106,2,1411,1009,2049,2,1048,1072,2065,2,2038,1983,2069,2
0.862,1867,1996,2060,1,1938,2033,2095,1,1920,2033,2042,1,396,245,201,1,2144,2129,2122,1,1787,1807,2035,1,2026,2023,2052,1,2060,2062,2056,1
0.863,495,1494,1934,2,238,1849,1928,2,259,1865,2155,2,396,252,206,2,2126,2115,2105,2,1084,869,2051,2,1048,924,2063,2,2038,1972,2070,2
0.864,1867,1996,2060,1,1938,2033,2095,1,1920,2033,2042,1,396,245,201,1,2144,2129,2122,1,1787,1807,2035,1,2026,2023,2052,1,2060,2062,2056,1
0.865,454,1494,1920,2,221,1849,1928,2,239,1865,2155,2,399,252,206,2,2125,2115,2105,2,1011,869,2051,2,973,924,2063,2,2029,1972,2070,2
0.866,1867,1996,2060,1,1938,2033,2095,1,1920,2033,2042,1,396,245,201,1,2144,2129,2122,1,1787,1807,2035,1,2026,2023,2052,1,2060,2062,2056,1
0.867,454,1545,1918,2,221,1876,1928,2,239,1887,2155,2,399,248,206,2,2125,2112,2105,2,1011,970,2056,2,973,1026,2065,2,2029,1984,2067,2
0.868,1867,1996,2060,1,1938,2033,2095,1,1920,2033,2042,1,396,245,201,1,2144,2129,2122,1,1787,1807,2035,1,2026,2023,2052,1,2060,2062,2056,1
0.869,487,1530,1918,2,237,1870,1928,2,255,1880,2155,2,397,250,206,2,2124,2113,2105,2,1042,949,2056,2,1006,997,2065,2,2028,1972,2067,2
0.87,1867,1996,2060,1,1938,2033,2095,1,1920,2033,2042,1,396,245,201,1,2144,2129,2122,1,1787,1807,2035,1,2026,2023,2052,1,2060,2062,2056,1
0.871,528,1530,1921,2,256,1870,1930,2,275,1880,2154,2,394,250,206,2,2123,2113,2105,2,1157,949,2060,2,1115,997,2064,2,2046,1972,2069,2
0.872,1867,1996,2060,1,1938,2033,2095,1,1920,2033,2042,1,396,245,201,1,2144,2129,2122,1,1787,1807,2035,1,2026,2023,2052,1,2060,2062,2056,1
0.873,400,1475,1922,2,196,1845,1931,2,211,1854,2152,2,401,253,206,2,2125,2115,2104,2,870,842,2048,2,841,884,2062,2,2022,1964,2066,2
0.874,1867,1996,2060,1,1938,2033,2095,1,1920,2033,2042,1,396,245,201,1,2144,2129,2122,1,1787,1807,2035,1,2026,2023,2052,1,2060,2062,2056,1
0.875,467,1390,1909,2,226,1807,1924,2,244,1816,2154,2,397,258,206,2,2125,2118,2106,2,1046,665,2072,2,1007,703,2061,2,2043,1958,2071,2
0.876,1867,1996,2060,1,1938,2033,2095,1,1920,2033,2042,1,396,245,201,1,2144,2129,2122,1,1787,1807,2035,1,2026,2023,2052,1,2060,2062,2056,1
0.877,617,1554,1918,2,294,1885,1927,2,319,1889,2154,2,388,251,206,2,2122,2114,2105,2,1374,1004,2064,2,1322,1046,2067,2,2035,1981,2068,2
0.878,1867,1996,2060,1,1938,2033,2095,1,1920,2033,2042,1,396,245,201,1,2144,2129,2122,1,1787,1807,2035,1,2026,2023,2052,1,2060,2062,2056,1
0.879,475,1495,1933,2,229,1858,1933,2,249,1862,2153,2,398,254,208,2,2126,2116,2107,2,1057,887,2070,2,1021,923,2065,2,2035,1970,2069,2
0.88,1867,1996,2060,1,1938,2033,2095,1,1920,2033,2042,1,396,245,201,1,2144,2129,2122,1,1787,1807,2035,1,2026,2023,2052,1,2060,2062,2056,1
0.881,431,1535,1918,2,210,1879,1923,2,230,1880,2153,2,404,253,208,2,2129,2115,2107,2,981,977,2070,2,944,1010,2065,2,2028,1964,2069,2
0.882,1867,1996,2060,1,1938,2033,2095,1,1920,2033,2042,1,396,245,201,1,2144,2129,2122,1,1787,1807,2035,1,2026,2023,2052,1,2060,2062,2056,1
0.883,540,1535,1927,2,260,1879,1926,2,284,1880,2151,2,398,253,209,2,2128,2115,2105,2,1054,977,2056,2,672,1010,2068,2,2012,1964,2067,2
0.884,1867,1996,2060,1,1938,2033,2095,1,1920,2033,2042,1,396,245,201,1,2144,2129,2122,1,1787,1807,2035,1,2026,2023,2052,1,2060,2062,2056,1
0.885,540,1513,1925,2,260,1874,1922,2,284,1869,2152,2,398,253,209,2,2128,2115,2105,2,1054,1005,2063,2,672,1031,2070,2,2012,1978,2065,2
0.886,1867,1996,2060,1,1938,2033,2095,1,1920,2033,2042,1,396,245,201,1,2144,2129,2122,1,1787,1807,2035,1,2026,2023,2052,1,2060,2062,2056,1
0.887,592,1468,1925,2,284,1855,1922,2,311,1848,2152,2,395,255,209,2,2127,2117,2105,2,1090,892,2063,2,538,916,2070,2,2004,1969,2065,2
0.888,1867,1996,2060,1,1938,2033,2095,1,1920,2033,2042,1,396,245,201,1,2144,2129,2122,1,1787,1807,2035,1,2026,2023,2052,1,2060,2062,2056,1
0.889,646,1615,1925,2,308,1927,1919,2,336,1915,2153,2,390,249,208,2,2125,2113,2105,2,1300,1184,2069,2,889,1210,2073,2,2029,1990,2064,2
