Time (s),G0_Short,G0_Long1,G0_Long2,G0_Emitter,G1_Short,G1_Long1,G1_Long2,G1_Emitter,G2_Short,G2_Long1,G2_Long2,G2_Emitter,G3_Short,G3_Long1,G3_Long2,G3_Emitter,G4_Short,G4_Long1,G4_Long2,G4_Emitter,G5_Short,G5_Long1,G5_Long2,G5_Emitter,G6_Short,G6_Long1,G6_Long2,G6_Emitter,G7_Short,G7_Long1,G7_Long2,G7_Emitter
0.0,1701,1552,1316,1,1990,1969,1968,1,1980,1952,1946,1,409,235,199,1,2076,2055,2054,1,2066,2035,2040,1,2015,1990,1980,1,2036,2021,2011,1
0.001,1723,1681,1536,1,1990,1970,1969,1,1980,1953,1947,1,414,240,201,1,2077,2057,2051,1,2068,2038,2038,1,2016,1993,1982,1,2038,2025,2011,1
0.002,1800,1854,1698,1,1993,1979,1972,1,1981,1961,1948,1,409,253,203,1,2075,2064,2053,1,2064,2044,2039,1,2012,1999,1982,1,2033,2031,2011,1
0.003,1905,2207,2491,1,1997,1979,1983,1,1985,1961,1957,1,411,253,211,1,2079,2064,2059,1,2068,2044,2046,1,2017,1999,1990,1,2036,2031,2017,1
0.004,1905,2382,2626,1,1997,1985,1987,1,1985,1968,1960,1,411,259,213,1,2079,2071,2062,1,2068,2051,2049,1,2017,2007,1996,1,2036,2039,2020,1
0.005,2048,2309,2626,1,2002,1987,1987,1,1989,1970,1960,1,410,262,213,1,2085,2074,2062,1,2073,2055,2049,1,2022,2012,1996,1,2043,2045,2020,1
0.006,2066,2282,2553,1,2004,1987,1989,1,1991,1970,1962,1,408,256,215,1,2085,2072,2064,1,2072,2052,2052,1,2022,2009,2001,1,2043,2042,2023,1
0.007,2003,2176,2394,1,2005,1987,1989,1,1993,1970,1963,1,414,259,216,1,2088,2075,2064,1,2078,2057,2053,1,2028,2014,2004,1,2049,2048,2026,1
0.008,1988,2079,2300,1,2005,1987,1989,1,1992,1972,1964,1,409,266,216,1,2087,2081,2067,1,2076,2064,2056,1,2027,2016,2004,1,2047,2048,2028,1
0.009,1876,1993,2070,1,2002,1986,1987,1,1989,1971,1963,1,401,258,214,1,2084,2077,2066,1,2073,2059,2056,1,2024,2016,2006,1,2046,2048,2028,1
0.009,1865,1581,2070,1,2002,1978,1987,1,1989,1964,1963,1,401,249,214,1,2084,2071,2066,1,2073,2054,2056,1,2024,2011,2006,1,2046,2043,2028,1
0.011,1767,1581,1336,1,1998,1978,1977,1,1985,1964,1955,1,398,249,205,1,2081,2071,2060,1,2070,2054,2050,1,2021,2011,2000,1,2041,2043,2022,1
0.012,1767,1465,1214,1,1998,1973,1974,1,1985,1959,1952,1,398,245,202,1,2081,2066,2057,1,2070,2049,2047,1,2021,2005,1998,1,2041,2037,2019,1
0.013,1643,1524,1214,1,1992,1972,1974,1,1978,1958,1952,1,390,247,202,1,2075,2066,2057,1,2064,2048,2047,1,2020,2004,1998,1,2039,2037,2019,1
0.014,1643,1529,1262,1,1989,1970,1972,1,1976,1955,1950,1,387,239,200,1,2072,2060,2054,1,2059,2041,2043,1,2013,1997,1995,1,2033,2030,2015,1
0.015,1700,1630,1412,1,1990,1970,1971,1,1977,1954,1949,1,395,243,201,1,2073,2062,2051,1,2061,2044,2040,1,2014,2000,1994,1,2034,2033,2013,1
0.016,1732,1733,1494,1,1989,1972,1971,1,1976,1954,1948,1,392,246,200,1,2071,2061,2052,1,2058,2041,2040,1,2010,1998,1990,1,2030,2030,2013,1
0.017,1782,1813,1748,1,1989,1971,1971,1,1977,1954,1948,1,395,246,201,1,2072,2061,2051,1,2058,2041,2038,1,2010,1998,1986,1,2028,2030,2010,1
0.018,1782,1998,2025,1,1989,1973,1974,1,1977,1955,1950,1,395,248,203,1,2072,2060,2052,1,2058,2040,2038,1,2010,1996,1988,1,2028,2027,2010,1
0.019,1982,2213,2025,1,1995,1978,1974,1,1982,1960,1950,1,400,255,203,1,2076,2065,2052,1,2061,2045,2038,1,2012,2002,1988,1,2033,2033,2010,1
0.02,2120,2474,2407,1,1999,1981,1980,1,1985,1962,1955,1,401,251,208,1,2078,2064,2056,1,2063,2043,2043,1,2014,1999,1993,1,2035,2031,2014,1
0.021,2089,2449,2511,1,2002,1984,1984,1,1989,1965,1959,1,411,257,212,1,2083,2070,2059,1,2070,2050,2047,1,2021,2007,1999,1,2042,2039,2019,1
0.022,2175,2345,2617,1,2004,1986,1987,1,1989,1968,1962,1,404,266,214,1,2082,2077,2063,1,2068,2059,2051,1,2019,2012,2000,1,2041,2044,2023,1
0.023,2187,2285,2517,1,2006,1987,1988,1,1991,1969,1964,1,404,260,216,1,2086,2074,2064,1,2074,2056,2053,1,2024,2012,2004,1,2046,2044,2026,1
0.023,2124,2120,2517,1,2006,1987,1988,1,1991,1970,1964,1,404,257,216,1,2086,2075,2064,1,2074,2058,2053,1,2024,2014,2004,1,2046,2046,2026,1
0.025,2086,2120,2262,1,2006,1987,1988,1,1992,1970,1965,1,406,257,214,1,2087,2075,2066,1,2076,2058,2056,1,2026,2014,2006,1,2046,2046,2029,1
0.025,2086,1870,1946,1,2006,1985,1985,1,1992,1968,1962,1,406,256,211,1,2087,2074,2065,1,2076,2059,2055,1,2026,2015,2006,1,2046,2046,2028,1
0.027,1900,1728,1946,1,2000,1982,1985,1,1986,1965,1962,1,396,255,211,1,2083,2073,2065,1,2073,2057,2055,1,2026,2014,2006,1,2048,2046,2028,1
0.028,1764,1522,1589,1,1996,1977,1980,1,1982,1961,1957,1,390,245,206,1,2078,2067,2060,1,2067,2050,2051,1,2019,2007,2003,1,2040,2039,2024,1
0.029,1838,1564,1474,1,1994,1975,1976,1,1981,1959,1953,1,396,249,204,1,2078,2069,2056,1,2068,2053,2046,1,2020,2009,2000,1,2041,2040,2018,1
0.03,1796,1661,1354,1,1991,1974,1973,1,1978,1958,1950,1,393,247,201,1,2075,2064,2056,1,2064,2046,2044,1,2015,2002,1995,1,2035,2033,2018,1
0.031,1844,1686,1456,1,1990,1972,1970,1,1977,1955,1947,1,395,247,199,1,2074,2064,2053,1,2063,2046,2041,1,2014,2002,1989,1,2032,2033,2013,1
0.032,1844,1844,1584,1,1990,1972,1970,1,1977,1954,1947,1,395,245,199,1,2074,2060,2052,1,2063,2042,2040,1,2014,1997,1989,1,2032,2029,2011,1
0.033,1926,1914,1584,1,1989,1972,1970,1,1976,1954,1947,1,395,246,199,1,2073,2060,2052,1,2060,2042,2040,1,2009,1998,1989,1,2030,2032,2011,1
0.034,1971,1979,1761,1,1990,1972,1971,1,1976,1953,1947,1,393,241,199,1,2071,2057,2052,1,2057,2037,2039,1,2006,1992,1989,1,2027,2026,2009,1
0.035,2010,2126,2158,1,1991,1974,1976,1,1977,1956,1951,1,400,247,205,1,2073,2060,2052,1,2060,2040,2039,1,2009,1995,1991,1,2031,2029,2010,1
0.036,2201,2252,2472,1,1995,1979,1980,1,1980,1962,1954,1,398,259,208,1,2074,2069,2056,1,2059,2050,2042,1,2007,2005,1990,1,2030,2035,2012,1
0.037,2387,2490,2718,1,1999,1983,1985,1,1988,1964,1958,1,404,256,212,1,2081,2068,2059,1,2068,2048,2045,1,2016,2003,1995,1,2040,2035,2016,1
0.037,2327,2452,2718,1,2002,1987,1985,1,1988,1968,1958,1,404,257,212,1,2081,2072,2059,1,2068,2053,2045,1,2016,2009,1995,1,2040,2041,2016,1
0.038,2312,2452,2733,1,2004,1987,1990,1,1991,1968,1963,1,408,257,215,1,2084,2072,2064,1,2072,2053,2052,1,2021,2009,2001,1,2042,2041,2024,1
0.04,2312,2285,2601,1,2004,1988,1991,1,1991,1971,1964,1,408,260,215,1,2084,2075,2065,1,2072,2058,2054,1,2021,2014,2004,1,2042,2045,2026,1
0.04,2240,2209,2601,1,2005,1988,1991,1,1992,1971,1964,1,406,261,215,1,2088,2077,2065,1,2076,2061,2054,1,2031,2018,2004,1,2052,2050,2026,1
0.042,2196,2148,2436,1,2005,1987,1991,1,1991,1970,1964,1,401,254,214,1,2086,2074,2065,1,2074,2057,2055,1,2028,2013,2007,1,2049,2045,2027,1
0.043,2160,1995,2049,1,2005,1985,1986,1,1992,1969,1961,1,408,255,211,1,2088,2075,2062,1,2078,2059,2053,1,2031,2016,2007,1,2052,2048,2027,1
0.044,2053,1894,1752,1,2001,1982,1983,1,1987,1967,1958,1,401,259,208,1,2084,2076,2062,1,2073,2051,2053,1,2027,2009,2003,1,2047,2040,2026,1
0.045,1892,1687,1513,1,1994,1977,1978,1,1980,1962,1954,1,392,248,205,1,2078,2069,2058,1,2067,2051,2049,1,2018,2009,2001,1,2039,2040,2022,1
0.046,1892,1693,1459,1,1994,1971,1975,1,1980,1956,1951,1,392,242,202,1,2078,2064,2056,1,2067,2046,2046,1,2018,2003,1998,1,2039,2033,2018,1
0.047,1909,1790,1459,1,1991,1971,1975,1,1976,1955,1951,1,391,244,202,1,2073,2063,2056,1,2062,2045,2046,1,2012,2002,1998,1,2034,2033,2018,1
0.048,1959,1790,1647,1,1991,1971,1972,1,1975,1955,1949,1,390,244,201,1,2071,2063,2052,1,2059,2045,2041,1,2009,2002,1988,1,2029,2033,2013,1
0.049,2002,1919,1799,1,1991,1971,1972,1,1976,1955,1948,1,398,247,202,1,2073,2064,2050,1,2062,2047,2039,1,2011,2003,1988,1,2032,2035,2012,1
0.05,2053,2016,1889,1,1991,1972,1972,1,1976,1956,1948,1,398,252,202,1,2072,2066,2051,1,2061,2050,2039,1,2010,2006,1985,1,2029,2037,2011,1
0.051,2141,2119,2052,1,1992,1972,1973,1,1976,1955,1949,1,390,246,203,1,2072,2061,2050,1,2060,2042,2038,1,2008,1998,1986,1,2030,2030,2009,1
0.051,2149,2610,2052,1,1993,1979,1973,1,1978,1959,1949,1,399,248,203,1,2072,2062,2050,1,2060,2041,2038,1,2008,1997,1986,1,2030,2029,2009,1
0.052,2239,2610,2899,1,1997,1979,1983,1,1983,1959,1956,1,404,248,211,1,2077,2062,2057,1,2064,2041,2044,1,2014,1997,1990,1,2033,2029,2015,1
0.053,2239,2775,3057,1,1997,1985,1987,1,1983,1966,1959,1,404,256,214,1,2077,2069,2060,1,2064,2050,2048,1,2014,2005,1996,1,2033,2037,2018,1
0.054,2370,2681,3057,1,2003,1987,1987,1,1989,1969,1959,1,407,260,214,1,2083,2073,2060,1,2071,2054,2048,1,2021,2010,1996,1,2041,2043,2018,1
0.055,2375,2643,2983,1,2005,1987,1989,1,1990,1969,1961,1,406,255,215,1,2084,2071,2062,1,2071,2052,2051,1,2021,2008,2001,1,2041,2040,2022,1
0.057,2289,2497,2779,1,2007,1988,1990,1,1993,1970,1963,1,414,262,216,1,2088,2077,2062,1,2077,2058,2052,1,2027,2015,2004,1,2047,2046,2025,1
0.058,2267,2383,2662,1,2006,1988,1991,1,1992,1972,1964,1,406,268,215,1,2086,2082,2065,1,2073,2064,2055,1,2024,2016,2004,1,2045,2047,2027,1
0.059,2193,2288,2477,1,2004,1988,1990,1,1989,1971,1964,1,402,260,215,1,2086,2078,2065,1,2075,2059,2055,1,2025,2016,2006,1,2046,2047,2028,1
0.06,2150,1816,2010,1,2003,1981,1985,1,1989,1965,1960,1,402,251,211,1,2086,2073,2063,1,2075,2055,2053,1,2025,2012,2004,1,2046,2043,2025,1
0.061,1961,1709,2010,1,1997,1977,1985,1,1983,1961,1960,1,396,248,211,1,2080,2070,2063,1,2069,2052,2053,1,2020,2009,2004,1,2041,2043,2025,1
0.062,1902,1709,1518,1,1994,1977,1975,1,1980,1961,1952,1,393,248,204,1,2077,2070,2058,1,2065,2052,2046,1,2016,2009,1996,1,2036,2043,2019,1
0.063,1944,1719,1493,1,1993,1974,1972,1,1980,1958,1950,1,400,246,202,1,2078,2067,2054,1,2067,2049,2042,1,2017,2006,1994,1,2038,2041,2016,1
0.064,1900,1831,1451,1,1991,1974,1971,1,1977,1958,1948,1,394,250,201,1,2073,2067,2054,1,2061,2049,2041,1,2011,2006,1989,1,2032,2040,2014,1
0.065,1930,1893,1586,1,1989,1972,1970,1,1975,1955,1948,1,387,242,201,1,2070,2061,2052,1,2055,2042,2038,1,2008,1999,1988,1,2030,2032,2011,1
0.066,1978,1990,1769,1,1990,1972,1970,1,1976,1955,1948,1,395,247,201,1,2072,2063,2051,1,2058,2044,2037,1,2008,2001,1986,1,2030,2034,2009,1
0.066,2063,1990,1877,1,1991,1972,1970,1,1977,1955,1948,1,399,247,201,1,2072,2063,2051,1,2059,2044,2037,1,2007,2001,1986,1,2029,2034,2009,1
0.067,2063,2174,2080,1,1991,1973,1972,1,1977,1956,1949,1,399,247,203,1,2072,2060,2051,1,2059,2041,2037,1,2007,1997,1987,1,2029,2029,2008,1
0.068,2200,2398,2080,1,1994,1977,1972,1,1980,1959,1949,1,402,252,203,1,2074,2063,2051,1,2061,2045,2037,1,2008,2002,1987,1,2031,2034,2008,1
0.069,2329,2667,2512,1,1998,1981,1979,1,1984,1961,1954,1,402,249,208,1,2077,2062,2055,1,2063,2042,2041,1,2011,1998,1992,1,2033,2031,2012,1
0.07,2322,2660,2682,1,2001,1985,1984,1,1988,1965,1958,1,411,257,213,1,2082,2068,2058,1,2070,2050,2045,1,2018,2006,1997,1,2041,2039,2017,1
0.072,2412,2565,2832,1,2003,1988,1988,1,1989,1969,1961,1,407,265,215,1,2082,2075,2063,1,2068,2058,2049,1,2017,2014,1998,1,2040,2043,2021,1
0.073,2421,2520,2756,1,2003,1988,1990,1,1988,1969,1963,1,408,259,216,1,2086,2073,2064,1,2074,2055,2051,1,2023,2011,2002,1,2045,2043,2024,1
0.074,2361,2334,2605,1,2005,1988,1990,1,1991,1970,1963,1,408,257,215,1,2086,2074,2065,1,2074,2056,2053,1,2023,2013,2005,1,2045,2045,2025,1
0.075,2283,2245,2605,1,2006,1988,1990,1,1992,1970,1963,1,409,257,215,1,2088,2075,2065,1,2077,2057,2053,1,2026,2015,2005,1,2048,2048,2025,1
0.076,2185,2245,2141,1,2004,1988,1987,1,1989,1970,1961,1,404,257,212,1,2085,2075,2064,1,2074,2057,2054,1,2025,2015,2006,1,2046,2048,2027,1
0.077,2185,1842,1744,1,2004,1981,1981,1,1989,1965,1957,1,404,255,208,1,2085,2071,2061,1,2074,2054,2051,1,2025,2005,2004,1,2046,2038,2024,1
0.078,2039,1778,1450,1,1999,1977,1977,1,1984,1962,1954,1,398,254,204,1,2081,2071,2060,1,2069,2055,2050,1,2021,2008,1999,1,2041,2040,2022,1
0.079,1889,1639,1338,1,1995,1974,1974,1,1980,1958,1951,1,388,245,202,1,2075,2065,2056,1,2061,2047,2046,1,2012,2001,1997,1,2035,2032,2018,1
0.08,1948,1690,1406,1,1994,1973,1972,1,1980,1957,1947,1,395,247,200,1,2075,2065,2052,1,2063,2047,2040,1,2013,2001,1991,1,2035,2034,2013,1
0.08,1980,1690,1411,1,1991,1973,1970,1,1977,1957,1947,1,397,247,200,1,2073,2065,2052,1,2061,2047,2040,1,2010,2001,1991,1,2032,2034,2013,1
0.081,1980,1870,1554,1,1991,1971,1970,1,1977,1954,1947,1,397,244,200,1,2073,2061,2051,1,2061,2042,2039,1,2010,1997,1990,1,2032,2029,2010,1
0.082,2038,1955,1554,1,1990,1971,1970,1,1976,1954,1947,1,395,247,200,1,2071,2061,2051,1,2058,2042,2039,1,2007,1997,1990,1,2030,2030,2010,1
0.083,2080,1955,1870,1,1990,1971,1971,1,1976,1954,1947,1,394,247,202,1,2070,2061,2050,1,2056,2042,2037,1,2005,1997,1984,1,2027,2030,2009,1
0.084,2109,2080,2167,1,1991,1972,1974,1,1977,1954,1949,1,402,249,205,1,2072,2061,2050,1,2059,2042,2037,1,2008,1997,1986,1,2030,2032,2009,1
0.086,2263,2249,2413,1,1994,1977,1977,1,1980,1959,1951,1,399,258,207,1,2072,2067,2053,1,2057,2050,2039,1,2005,2005,1985,1,2028,2039,2010,1
0.086,2442,2516,2708,1,1998,1980,1982,1,1983,1962,1955,1,396,256,210,1,2080,2066,2056,1,2066,2047,2043,1,2014,2002,1991,1,2038,2035,2014,1
0.087,2400,2568,2784,1,2001,1986,1986,1,1987,1967,1959,1,406,258,213,1,2080,2070,2060,1,2066,2050,2048,1,2014,2005,1996,1,2038,2039,2018,1
0.089,2381,2478,2784,1,2005,1987,1986,1,1991,1968,1959,1,412,259,213,1,2085,2072,2060,1,2072,2053,2048,1,2021,2009,1996,1,2044,2045,2018,1
0.09,2350,2478,2617,1,2006,1987,1990,1,1991,1968,1963,1,410,259,215,1,2085,2072,2064,1,2073,2053,2053,1,2023,2009,2001,1,2045,2045,2025,1
0.091,2350,2276,2476,1,2006,1988,1990,1,1991,1970,1963,1,410,263,215,1,2085,2075,2065,1,2073,2057,2054,1,2023,2007,2004,1,2045,2042,2027,1
0.092,2304,2155,2388,1,2007,1988,1990,1,1991,1970,1963,1,408,265,215,1,2085,2077,2067,1,2073,2060,2055,1,2024,2012,2003,1,2045,2046,2028,1
0.093,2126,2000,2073,1,2003,1985,1987,1,1988,1967,1961,1,400,256,212,1,2081,2072,2064,1,2068,2055,2053,1,2019,2009,2004,1,2040,2042,2027,1
0.094,2122,1833,1723,1,2001,1981,1981,1,1987,1964,1957,1,403,255,209,1,2082,2071,2058,1,2071,2054,2046,1,2022,2009,1997,1,2044,2043,2021,1
0.095,1976,1725,1445,1,1996,1975,1977,1,1982,1959,1953,1,396,250,204,1,2078,2065,2058,1,2066,2048,2046,1,2017,2004,1997,1,2038,2036,2021,1
0.096,1976,1725,1299,1,1996,1975,1971,1,1982,1959,1948,1,396,250,200,1,2078,2065,2054,1,2066,2048,2042,1,2017,2004,1991,1,2038,2036,2015,1
0.096,1909,1780,1299,1,1991,1973,1971,1,1978,1956,1948,1,394,247,200,1,2073,2063,2054,1,2061,2045,2042,1,2011,2002,1991,1,2033,2036,2015,1
0.098,1929,1780,1487,1,1991,1973,1969,1,1976,1956,1946,1,391,247,199,1,2070,2063,2051,1,2058,2045,2039,1,2008,2002,1987,1,2029,2036,2011,1
0.098,1950,1881,1646,1,1991,1973,1969,1,1977,1955,1946,1,398,249,200,1,2072,2063,2049,1,2061,2045,2037,1,2010,2001,1987,1,2032,2036,2010,1
0.099,1974,1966,1739,1,1990,1973,1969,1,1976,1956,1946,1,396,255,200,1,2070,2066,2051,1,2058,2048,2038,1,2007,2003,1984,1,2028,2036,2009,1
0.1,2054,2053,1907,1,1990,1973,1971,1,1974,1954,1947,1,388,247,201,1,2067,2060,2050,1,2057,2041,2037,1,2005,1996,1984,1,2028,2029,2008,1
0.101,2053,2193,2592,1,1990,1975,1979,1,1976,1955,1952,1,396,252,208,1,2070,2062,2054,1,2057,2044,2040,1,2005,1999,1987,1,2028,2032,2011,1
0.102,2187,2409,2592,1,1997,1979,1979,1,1984,1959,1952,1,406,255,208,1,2076,2065,2054,1,2063,2047,2040,1,2012,2003,1987,1,2035,2037,2011,1
0.104,2259,2409,3001,1,2000,1979,1987,1,1987,1959,1959,1,409,255,215,1,2080,2065,2060,1,2067,2047,2046,1,2016,2003,1994,1,2037,2037,2019,1
0.104,2259,2429,2947,1,2000,1986,1989,1,1987,1967,1961,1,409,263,217,1,2080,2071,2062,1,2067,2052,2049,1,2016,2008,1999,1,2037,2041,2022,1
0.106,2254,2352,2932,1,2002,1987,1990,1,1989,1969,1963,1,409,266,217,1,2082,2075,2065,1,2069,2058,2053,1,2019,2014,1999,1,2039,2047,2025,1
0.107,2248,2307,2758,1,2003,1987,1990,1,1989,1969,1964,1,403,260,216,1,2081,2072,2065,1,2067,2054,2053,1,2018,2010,2003,1,2039,2043,2026,1
0.108,2171,2232,2557,1,2004,1987,1990,1,1992,1970,1964,1,412,261,216,1,2085,2074,2064,1,2073,2057,2053,1,2024,2013,2004,1,2045,2047,2029,1
0.109,2138,2115,2428,1,2004,1984,1990,1,1991,1968,1964,1,407,259,215,1,2084,2073,2066,1,2071,2056,2055,1,2023,2013,2004,1,2043,2045,2029,1
0.109,2138,1917,1754,1,2004,1984,1982,1,1991,1968,1958,1,407,259,209,1,2084,2073,2063,1,2071,2056,2051,1,2023,2013,2001,1,2043,2045,2025,1
0.11,1933,1746,1754,1,1997,1979,1982,1,1984,1963,1958,1,401,254,209,1,2080,2069,2063,1,2068,2052,2051,1,2019,2010,2001,1,2040,2044,2025,1
0.111,1846,1746,1335,1,1994,1979,1974,1,1981,1963,1952,1,397,254,203,1,2077,2069,2057,1,2064,2052,2044,1,2015,2010,1995,1,2035,2044,2018,1
0.112,1882,1700,1315,1,1993,1975,1970,1,1980,1959,1949,1,402,250,201,1,2077,2066,2054,1,2066,2049,2041,1,2016,2007,1993,1,2037,2042,2015,1
0.113,1810,1765,1278,1,1990,1973,1969,1,1977,1957,1947,1,394,251,199,1,2072,2066,2054,1,2060,2049,2040,1,2010,2007,1988,1,2031,2041,2013,1
0.114,1814,1789,1411,1,1989,1971,1969,1,1975,1954,1946,1,387,244,199,1,2069,2060,2051,1,2054,2041,2038,1,2003,1998,1987,1,2029,2032,2011,1
0.115,1848,1860,1588,1,1989,1971,1969,1,1975,1954,1946,1,394,247,201,1,2070,2061,2049,1,2057,2042,2036,1,2006,1998,1984,1,2029,2032,2009,1
0.116,1909,1941,1691,1,1989,1972,1969,1,1975,1954,1946,1,397,247,201,1,2070,2059,2049,1,2057,2039,2036,1,2005,1996,1984,1,2028,2032,2009,1
0.117,1942,1941,1970,1,1990,1972,1971,1,1976,1954,1946,1,398,247,203,1,2070,2059,2049,1,2056,2039,2035,1,2005,1996,1982,1,2026,2032,2007,1
0.118,1942,2359,2404,1,1990,1978,1976,1,1976,1959,1951,1,398,254,207,1,2070,2062,2052,1,2056,2041,2038,1,2005,1997,1987,1,2026,2031,2010,1
0.12,2067,2453,2725,1,1994,1981,1981,1,1980,1963,1954,1,402,259,210,1,2074,2068,2056,1,2060,2048,2042,1,2009,2004,1988,1,2029,2038,2013,1
0.121,2210,2618,2875,1,1998,1984,1985,1,1983,1965,1958,1,399,256,213,1,2076,2067,2058,1,2061,2046,2045,1,2010,2001,1994,1,2031,2035,2017,1
0.122,2160,2492,2776,1,2001,1987,1987,1,1987,1968,1961,1,410,264,216,1,2082,2073,2059,1,2070,2055,2047,1,2018,2010,1999,1,2039,2043,2023,1
0.123,2170,2361,2751,1,2003,1987,1989,1,1988,1970,1963,1,407,265,217,1,2082,2075,2063,1,2069,2057,2050,1,2018,2013,1999,1,2040,2045,2023,1
0.123,2170,2268,2472,1,2003,1987,1989,1,1988,1970,1964,1,407,265,217,1,2082,2075,2065,1,2069,2057,2053,1,2018,2013,2001,1,2040,2045,2026,1
0.124,2115,2151,2472,1,2004,1987,1989,1,1991,1970,1964,1,410,262,217,1,2086,2075,2065,1,2073,2057,2053,1,2022,2014,2001,1,2045,2048,2026,1
0.125,2045,2151,2141,1,2002,1987,1987,1,1989,1970,1963,1,406,262,214,1,2084,2075,2065,1,2072,2057,2054,1,2023,2014,2003,1,2044,2048,2028,1
0.126,2045,1721,1721,1,2002,1981,1982,1,1989,1965,1959,1,406,257,210,1,2084,2071,2061,1,2072,2054,2051,1,2023,2004,2002,1,2044,2038,2025,1
0.127,1874,1636,1413,1,1997,1977,1978,1,1983,1962,1956,1,397,256,206,1,2079,2071,2060,1,2066,2054,2049,1,2018,2006,1998,1,2039,2039,2022,1
0.128,1721,1489,1257,1,1993,1973,1974,1,1978,1958,1952,1,387,245,203,1,2073,2064,2056,1,2059,2046,2045,1,2011,1999,1995,1,2034,2032,2018,1
0.129,1796,1525,1280,1,1992,1972,1971,1,1978,1956,1947,1,394,245,200,1,2074,2063,2052,1,2061,2045,2040,1,2012,2000,1989,1,2034,2033,2012,1
0.13,1827,1619,1255,1,1989,1971,1969,1,1975,1954,1947,1,396,243,200,1,2072,2060,2052,1,2059,2042,2040,1,2008,1997,1989,1,2031,2032,2012,1
0.131,1850,1619,1466,1,1989,1971,1968,1,1975,1954,1946,1,396,243,199,1,2071,2060,2050,1,2057,2042,2037,1,2007,1997,1984,1,2028,2032,2009,1
0.132,1850,1795,1602,1,1989,1970,1969,1,1975,1953,1946,1,396,246,200,1,2071,2058,2049,1,2057,2040,2036,1,2007,1995,1984,1,2028,2028,2007,1
0.133,1903,1870,1695,1,1989,1970,1969,1,1975,1954,1946,1,396,250,200,1,2070,2060,2050,1,2056,2042,2036,1,2005,1996,1981,1,2025,2030,2007,1
0.135,1975,1949,1868,1,1991,1970,1971,1,1975,1953,1946,1,392,244,201,1,2068,2056,2049,1,2053,2036,2035,1,2001,1990,1982,1,2023,2023,2006,1
0.136,2002,2188,2296,1,1993,1975,1977,1,1978,1957,1951,1,402,250,207,1,2073,2060,2050,1,2059,2040,2042,1,2007,1995,1988,1,2029,2029,2013,1
0.137,2146,2205,2610,1,1997,1983,1982,1,1982,1965,1955,1,403,260,211,1,2075,2068,2056,1,2060,2049,2042,1,2008,2003,1988,1,2030,2036,2013,1
0.137,2146,2355,2793,1,1997,1983,1988,1,1982,1965,1961,1,403,260,215,1,2075,2068,2062,1,2060,2049,2047,1,2008,2003,1994,1,2030,2036,2020,1
0.138,2194,2313,2793,1,2002,1985,1988,1,1987,1967,1961,1,409,261,215,1,2082,2070,2062,1,2068,2051,2047,1,2016,2007,1994,1,2039,2041,2020,1
0.139,2191,2313,2614,1,2003,1985,1989,1,1989,1967,1963,1,409,261,217,1,2083,2070,2065,1,2069,2051,2051,1,2019,2007,1999,1,2040,2041,2024,1
0.141,2122,2229,2465,1,2004,1985,1989,1,1991,1968,1963,1,416,261,217,1,2087,2072,2065,1,2075,2054,2052,1,2025,2010,2002,1,2046,2046,2025,1
0.141,2104,2132,2371,1,2004,1985,1989,1,1990,1969,1963,1,412,264,216,1,2086,2075,2067,1,2074,2059,2054,1,2025,2015,2001,1,2045,2050,2026,1
0.142,1986,2033,2109,1,2001,1984,1987,1,1986,1967,1962,1,400,255,214,1,2082,2071,2064,1,2069,2054,2052,1,2019,2010,2003,1,2041,2045,2026,1
0.143,1976,1840,1729,1,2000,1981,1981,1,1986,1964,1957,1,405,254,205,1,2083,2071,2058,1,2072,2054,2046,1,2022,2010,1996,1,2044,2046,2020,1
0.144,1847,1704,1430,1,1995,1976,1977,1,1981,1959,1954,1,401,248,205,1,2077,2066,2058,1,2066,2049,2046,1,2016,2006,1996,1,2038,2043,2020,1
0.145,1823,1704,1208,1,1992,1976,1970,1,1978,1959,1948,1,397,248,201,1,2074,2066,2053,1,2062,2049,2041,1,2013,2006,1990,1,2034,2043,2014,1
0.146,1823,1706,1278,1,1992,1970,1969,1,1978,1955,1946,1,397,246,200,1,2074,2061,2051,1,2062,2042,2038,1,2013,1999,1989,1,2034,2033,2011,1
0.147,1826,1780,1307,1,1990,1969,1968,1,1976,1954,1945,1,396,248,198,1,2072,2061,2051,1,2059,2043,2038,1,2010,1999,1985,1,2029,2033,2009,1
0.148,1862,1836,1474,1,1988,1968,1968,1,1973,1952,1945,1,390,241,199,1,2068,2056,2048,1,2054,2036,2035,1,2004,1992,1985,1,2024,2026,2008,1
0.15,1890,1913,1669,1,1988,1969,1968,1,1974,1953,1945,1,397,246,200,1,2070,2058,2046,1,2058,2039,2033,1,2007,1994,1982,1,2027,2029,2007,1
0.151,1950,1958,1800,1,1988,1971,1969,1,1974,1955,1945,1,394,251,201,1,2068,2058,2048,1,2054,2037,2034,1,2003,1992,1982,1,2023,2025,2007,1
0.151,1950,2053,2302,1,1988,1971,1975,1,1974,1955,1949,1,394,251,205,1,2068,2058,2050,1,2054,2037,2035,1,2003,1992,1982,1,2023,2025,2008,1
0.152,2061,2291,2302,1,1994,1977,1975,1,1981,1959,1949,1,403,255,205,1,2073,2062,2050,1,2059,2041,2035,1,2007,1996,1982,1,2030,2031,2008,1
0.153,2152,2291,2820,1,1997,1977,1984,1,1984,1959,1956,1,406,255,213,1,2076,2062,2057,1,2062,2041,2042,1,2011,1996,1990,1,2032,2031,2015,1
0.154,2097,2335,2810,1,2000,1980,1987,1,1988,1962,1959,1,415,258,216,1,2081,2066,2059,1,2069,2046,2045,1,2017,2002,1995,1,2039,2037,2018,1
0.155,2148,2274,2829,1,2001,1982,1989,1,1988,1964,1961,1,410,264,216,1,2081,2072,2062,1,2068,2053,2048,1,2017,2009,1996,1,2039,2043,2021,1
0.156,2157,2242,2673,1,2002,1983,1989,1,1988,1965,1961,1,403,258,216,1,2080,2069,2062,1,2065,2050,2049,1,2015,2006,1999,1,2038,2040,2023,1
0.157,2083,2164,2473,1,2003,1984,1988,1,1990,1966,1961,1,410,260,216,1,2084,2072,2064,1,2071,2054,2051,1,2021,2011,2001,1,2044,2045,2026,1
0.159,2000,1995,2350,1,2003,1982,1988,1,1991,1965,1962,1,411,256,216,1,2085,2071,2064,1,2074,2053,2051,1,2024,2012,2001,1,2047,2047,2026,1
0.159,1905,1995,1765,1,1999,1982,1981,1,1987,1965,1957,1,406,256,210,1,2082,2071,2062,1,2072,2053,2050,1,2023,2012,1999,1,2044,2047,2024,1
0.16,1905,1633,1456,1,1999,1974,1976,1,1987,1959,1953,1,406,251,206,1,2082,2066,2058,1,2072,2048,2046,1,2023,2006,1997,1,2044,2039,2020,1
0.161,1791,1611,1221,1,1996,1972,1973,1,1983,1957,1950,1,402,251,203,1,2078,2065,2057,1,2067,2047,2044,1,2018,2004,1992,1,2038,2038,2017,1
0.162,1714,1538,1185,1,1992,1969,1970,1,1978,1954,1947,1,393,242,201,1,2072,2059,2054,1,2060,2040,2041,1,2010,1996,1990,1,2031,2030,2013,1
0.164,1732,1598,1293,1,1991,1968,1969,1,1977,1953,1945,1,397,244,201,1,2072,2060,2050,1,2061,2041,2037,1,2010,1997,1988,1,2033,2031,2008,1
0.164,1723,1694,1340,1,1989,1970,1968,1,1974,1952,1944,1,393,245,200,1,2069,2057,2050,1,2056,2037,2037,1,2006,1993,1984,1,2028,2026,2008,1
0.165,1723,1761,1580,1,1989,1969,1967,1,1974,1952,1944,1,393,245,200,1,2069,2057,2049,1,2056,2037,2035,1,2006,1993,1981,1,2028,2026,2006,1
0.166,1776,1819,1580,1,1987,1969,1967,1,1973,1952,1944,1,396,245,200,1,2069,2056,2049,1,2054,2036,2035,1,2003,1993,1981,1,2025,2027,2006,1
0.167,1803,1819,1825,1,1987,1969,1969,1,1974,1952,1945,1,396,245,202,1,2068,2056,2047,1,2053,2036,2033,1,2002,1993,1980,1,2022,2027,2005,1
0.168,1841,1993,2175,1,1988,1971,1974,1,1976,1954,1948,1,404,248,206,1,2070,2057,2049,1,2057,2037,2034,1,2005,1994,1983,1,2026,2029,2006,1
0.169,1994,2152,2455,1,1992,1976,1977,1,1979,1959,1951,1,403,256,209,1,2072,2064,2053,1,2057,2045,2038,1,2005,2002,1983,1,2026,2035,2009,1
0.17,2142,2388,2662,1,1995,1979,1982,1,1981,1962,1955,1,398,253,213,1,2073,2063,2054,1,2057,2043,2040,1,2005,1999,1989,1,2028,2032,2013,1
0.171,2088,2327,2605,1,1998,1981,1984,1,1985,1965,1958,1,408,258,216,1,2079,2067,2059,1,2065,2048,2046,1,2013,2005,1996,1,2036,2039,2020,1
0.172,2056,2199,2615,1,2002,1982,1987,1,1989,1966,1960,1,413,258,216,1,2084,2068,2059,1,2071,2049,2046,1,2020,2008,1996,1,2043,2043,2020,1
0.173,2001,2199,2347,1,2002,1982,1987,1,1989,1966,1961,1,412,258,216,1,2085,2068,2063,1,2072,2049,2050,1,2022,2008,1999,1,2043,2043,2024,1
0.174,2001,1983,2186,1,2002,1983,1986,1,1989,1968,1961,1,412,260,214,1,2085,2071,2063,1,2072,2052,2051,1,2022,2010,2002,1,2043,2044,2024,1
0.175,1948,1799,2079,1,2002,1982,1986,1,1989,1967,1961,1,410,260,214,1,2084,2072,2065,1,2071,2054,2052,1,2022,2012,2000,1,2042,2046,2025,1
0.177,1756,1571,1682,1,1997,1979,1981,1,1984,1963,1958,1,401,250,211,1,2079,2067,2062,1,2065,2048,2049,1,2016,2006,2000,1,2036,2040,2022,1
0.178,1779,1511,1423,1,1996,1975,1976,1,1983,1960,1953,1,404,253,207,1,2079,2069,2056,1,2067,2051,2044,1,2017,2008,1997,1,2038,2041,2016,1
0.179,1667,1552,1201,1,1992,1973,1972,1,1979,1954,1950,1,397,247,203,1,2074,2062,2055,1,2062,2044,2042,1,2012,2000,1992,1,2033,2033,2016,1
0.179,1667,1496,1137,1,1992,1970,1967,1,1979,1954,1945,1,397,247,199,1,2074,2062,2051,1,2062,2044,2037,1,2012,2000,1985,1,2033,2033,2010,1
0.18,1683,1559,1137,1,1989,1969,1967,1,1975,1952,1945,1,396,245,199,1,2070,2059,2051,1,2057,2041,2037,1,2007,1997,1985,1,2028,2032,2010,1
0.181,1711,1559,1343,1,1988,1969,1966,1,1974,1952,1943,1,395,245,199,1,2068,2059,2049,1,2055,2041,2034,1,2005,1997,1982,1,2025,2032,2007,1
0.182,1711,1692,1480,1,1988,1968,1966,1,1974,1951,1944,1,395,248,200,1,2068,2058,2048,1,2055,2038,2032,1,2005,1987,1982,1,2025,2021,2005,1
0.183,1758,1745,1568,1,1988,1968,1966,1,1973,1951,1944,1,393,252,199,1,2066,2060,2048,1,2053,2041,2033,1,2003,1992,1979,1,2022,2025,2005,1
0.184,1816,1813,1714,1,1988,1968,1968,1,1973,1951,1944,1,387,246,200,1,2063,2055,2046,1,2048,2035,2031,1,1997,1986,1980,1,2023,2019,2004,1
0.185,1831,2011,2149,1,1989,1972,1974,1,1975,1955,1952,1,397,252,209,1,2067,2059,2052,1,2053,2038,2036,1,2002,1991,1985,1,2023,2024,2010,1
0.186,1973,2186,2476,1,1995,1976,1978,1,1983,1959,1952,1,408,255,209,1,2076,2062,2052,1,2062,2041,2036,1,2010,1996,1985,1,2032,2030,2010,1
0.187,2028,2186,2762,1,1998,1976,1985,1,1986,1959,1957,1,409,255,215,1,2078,2062,2058,1,2065,2041,2044,1,2014,1996,1991,1,2034,2030,2017,1
0.188,2028,2121,2658,1,1998,1980,1986,1,1986,1964,1959,1,409,260,216,1,2078,2068,2059,1,2065,2048,2046,1,2014,2004,1995,1,2034,2037,2019,1
0.189,2019,2020,2608,1,2000,1981,1987,1,1987,1966,1960,1,409,263,216,1,2080,2072,2062,1,2067,2053,2049,1,2017,2009,1995,1,2036,2042,2021,1
0.19,1975,1957,2414,1,2000,1981,1987,1,1987,1966,1960,1,403,257,216,1,2079,2069,2062,1,2066,2049,2050,1,2016,2005,1998,1,2036,2038,2022,1
0.191,1918,1890,2202,1,2002,1982,1986,1,1989,1967,1960,1,411,262,216,1,2083,2074,2061,1,2071,2056,2050,1,2021,2012,1999,1,2042,2044,2024,1
0.192,1858,1742,2043,1,2001,1977,1986,1,1987,1963,1960,1,405,257,214,1,2081,2070,2063,1,2068,2052,2051,1,2019,2008,1999,1,2039,2040,2024,1
0.193,1858,1495,1298,1,2001,1977,1977,1,1987,1963,1953,1,405,257,206,1,2081,2070,2058,1,2068,2052,2046,1,2019,2008,1994,1,2039,2040,2018,1
0.194,1622,1414,1298,1,1993,1974,1977,1,1980,1959,1953,1,399,252,206,1,2075,2066,2058,1,2063,2047,2046,1,2013,2004,1994,1,2034,2038,2018,1
0.195,1565,1414,1032,1,1991,1974,1970,1,1978,1959,1947,1,396,252,201,1,2072,2066,2052,1,2059,2047,2039,1,2009,2004,1988,1,2029,2038,2012,1
0.196,1575,1422,1073,1,1990,1971,1968,1,1977,1955,1945,1,400,249,201,1,2072,2063,2049,1,2060,2044,2036,1,2010,2001,1986,1,2032,2036,2009,1
0.197,1552,1505,1076,1,1987,1969,1966,1,1974,1953,1943,1,396,251,199,1,2069,2063,2049,1,2056,2045,2035,1,2007,2001,1982,1,2027,2035,2007,1
0.198,1581,1564,1236,1,1985,1967,1966,1,1971,1951,1942,1,388,243,199,1,2065,2057,2046,1,2050,2037,2032,1,2001,1993,1982,1,2025,2026,2006,1
0.199,1597,1635,1411,1,1985,1967,1966,1,1972,1951,1943,1,396,246,201,1,2067,2057,2046,1,2054,2037,2031,1,2003,1993,1979,1,2025,2028,2004,1
0.2,1637,1726,1521,1,1986,1967,1967,1,1974,1951,1943,1,400,246,201,1,2067,2055,2046,1,2053,2035,2031,1,2000,1991,1979,1,2024,2028,2004,1
0.201,1697,1726,1845,1,1989,1967,1970,1,1977,1951,1945,1,402,246,203,1,2068,2055,2046,1,2053,2035,2031,1,2001,1991,1978,1,2023,2028,2004,1
0.202,1697,2204,2253,1,1989,1976,1976,1,1977,1958,1950,1,402,255,208,1,2068,2060,2050,1,2053,2040,2035,1,2001,1995,1983,1,2023,2029,2007,1
0.203,1808,2236,2543,1,1992,1979,1980,1,1981,1961,1953,1,405,261,211,1,2072,2066,2055,1,2057,2047,2039,1,2006,2002,1984,1,2026,2035,2010,1
0.204,1932,2339,2619,1,1995,1982,1983,1,1983,1963,1956,1,401,257,214,1,2073,2064,2057,1,2057,2044,2042,1,2007,1999,1989,1,2029,2032,2013,1
0.205,1859,2207,2484,1,1997,1984,1984,1,1986,1966,1958,1,411,265,215,1,2079,2071,2057,1,2065,2052,2044,1,2014,2007,1994,1,2036,2039,2019,1
0.206,1870,2066,2426,1,1999,1985,1986,1,1987,1968,1959,1,408,265,216,1,2080,2072,2060,1,2065,2053,2047,1,2014,2008,1994,1,2036,2041,2019,1
0.207,1870,1975,2153,1,1999,1985,1986,1,1987,1968,1960,1,408,265,215,1,2080,2072,2063,1,2065,2053,2049,1,2014,2008,1996,1,2036,2041,2022,1
0.208,1769,1839,2153,1,2000,1983,1986,1,1988,1968,1960,1,410,263,215,1,2083,2072,2063,1,2069,2053,2049,1,2018,2009,1996,1,2041,2044,2022,1
0.209,1660,1839,1658,1,1998,1983,1981,1,1986,1968,1957,1,406,263,211,1,2080,2072,2061,1,2067,2053,2049,1,2016,2009,1997,1,2038,2044,2022,1
0.21,1643,1594,1327,1,1996,1978,1976,1,1985,1963,1953,1,409,258,207,1,2080,2069,2056,1,2070,2050,2044,1,2019,2007,1995,1,2041,2043,2018,1
0.211,1502,1477,1070,1,1992,1974,1972,1,1980,1959,1950,1,401,257,203,1,2075,2068,2055,1,2065,2050,2042,1,2015,2006,1990,1,2035,2041,2015,1
0.212,1384,1324,981,1,1988,1970,1969,1,1975,1955,1947,1,390,246,201,1,2069,2061,2050,1,2056,2041,2038,1,2006,1997,1989,1,2030,2031,2012,1
0.213,1405,1326,1031,1,1987,1968,1967,1,1974,1953,1943,1,395,247,200,1,2070,2060,2047,1,2058,2041,2034,1,2007,1997,1983,1,2030,2031,2007,1
0.214,1413,1380,1033,1,1985,1967,1965,1,1972,1951,1943,1,397,244,200,1,2068,2057,2047,1,2055,2037,2034,1,2003,1994,1983,1,2026,2030,2007,1
0.215,1421,1380,1224,1,1985,1967,1965,1,1972,1951,1943,1,397,244,200,1,2067,2057,2046,1,2053,2037,2032,1,2002,1994,1980,1,2023,2030,2004,1
0.216,1421,1496,1350,1,1985,1966,1966,1,1972,1950,1943,1,397,246,201,1,2067,2055,2045,1,2053,2034,2031,1,2002,1990,1980,1,2023,2025,2002,1
0.217,1466,1559,1443,1,1985,1967,1966,1,1971,1951,1943,1,394,249,201,1,2065,2057,2047,1,2050,2036,2032,1,1999,1992,1977,1,2020,2026,2002,1
0.218,1610,1663,1720,1,1988,1967,1969,1,1974,1950,1945,1,392,244,204,1,2065,2053,2047,1,2048,2031,2032,1,1997,1985,1979,1,2020,2019,2002,1
0.219,1607,1811,2068,1,1991,1973,1975,1,1979,1956,1950,1,404,256,210,1,2070,2061,2049,1,2055,2040,2035,1,2003,1994,1986,1,2026,2027,2010,1
0.221,1729,1845,2333,1,1994,1979,1980,1,1982,1962,1954,1,404,260,213,1,2073,2067,2054,1,2057,2046,2039,1,2005,2000,1986,1,2027,2032,2010,1
0.221,1729,1946,2386,1,1994,1979,1985,1,1982,1962,1959,1,404,260,217,1,2073,2067,2059,1,2057,2046,2045,1,2005,2000,1991,1,2027,2032,2016,1
0.222,1764,1865,2386,1,1998,1980,1985,1,1986,1964,1959,1,409,261,217,1,2079,2068,2059,1,2065,2048,2045,1,2013,2003,1991,1,2035,2037,2016,1
0.223,1731,1865,2134,1,1999,1980,1985,1,1987,1964,1959,1,409,261,216,1,2080,2068,2061,1,2066,2048,2048,1,2015,2003,1995,1,2035,2037,2021,1
0.224,1691,1759,1970,1,2000,1980,1985,1,1989,1965,1959,1,415,261,216,1,2083,2069,2061,1,2071,2050,2048,1,2020,2006,1998,1,2041,2041,2021,1
0.225,1658,1597,1868,1,2000,1979,1985,1,1988,1965,1959,1,410,262,215,1,2082,2072,2063,1,2070,2054,2049,1,2020,2011,1997,1,2040,2045,2022,1
0.226,1457,1402,1506,1,1996,1977,1981,1,1984,1963,1957,1,398,254,212,1,2076,2067,2059,1,2062,2049,2046,1,2012,2005,1997,1,2037,2039,2021,1
0.227,1466,1289,1213,1,1994,1974,1975,1,1982,1960,1950,1,403,253,204,1,2077,2066,2053,1,2065,2048,2040,1,2015,2004,1990,1,2037,2039,2014,1
0.228,1373,1220,969,1,1989,1970,1971,1,1977,1956,1950,1,400,248,204,1,2072,2061,2053,1,2060,2043,2040,1,2009,2000,1990,1,2031,2036,2014,1
0.229,1351,1220,844,1,1987,1970,1965,1,1974,1956,1945,1,396,248,200,1,2069,2061,2049,1,2056,2043,2035,1,2006,2000,1983,1,2027,2036,2008,1
0.23,1351,1251,925,1,1987,1965,1964,1,1974,1951,1943,1,396,246,199,1,2069,2056,2047,1,2056,2037,2033,1,2006,1993,1982,1,2027,2027,2005,1
0.231,1371,1306,970,1,1985,1964,1963,1,1972,1950,1942,1,394,248,199,1,2067,2057,2047,1,2054,2038,2033,1,2003,1994,1978,1,2024,2028,2004,1
0.232,1385,1353,1103,1,1984,1964,1963,1,1971,1949,1942,1,388,242,199,1,2064,2052,2044,1,2048,2031,2030,1,1997,1986,1978,1,2019,2020,2002,1
0.233,1423,1409,1263,1,1983,1965,1964,1,1971,1950,1943,1,395,244,201,1,2066,2053,2042,1,2052,2032,2029,1,2000,1987,1975,1,2023,2022,2000,1
0.234,1467,1469,1381,1,1984,1969,1965,1,1971,1953,1943,1,393,251,201,1,2064,2055,2044,1,2049,2033,2029,1,1997,1987,1975,1,2019,2021,2000,1
0.235,1467,1650,2008,1,1984,1969,1973,1,1971,1953,1949,1,393,251,208,1,2064,2055,2048,1,2049,2033,2033,1,1997,1987,1978,1,2019,2021,2004,1
0.236,1632,1868,2008,1,1991,1974,1973,1,1979,1957,1949,1,403,255,208,1,2071,2060,2048,1,2056,2038,2033,1,2003,1993,1978,1,2026,2027,2004,1
0.237,1720,1868,2417,1,1994,1974,1981,1,1982,1957,1956,1,406,255,214,1,2074,2060,2055,1,2059,2038,2040,1,2006,1993,1986,1,2028,2027,2012,1
0.238,1654,1883,2362,1,1996,1977,1983,1,1985,1960,1958,1,415,257,216,1,2079,2063,2056,1,2066,2042,2042,1,2013,1998,1990,1,2035,2033,2015,1
0.239,1706,1800,2348,1,1998,1980,1985,1,1986,1963,1959,1,410,263,217,1,2079,2068,2059,1,2064,2049,2045,1,2011,2004,1990,1,2034,2039,2017,1
0.241,1708,1756,2180,1,1998,1980,1985,1,1986,1963,1959,1,404,257,217,1,2078,2065,2059,1,2061,2046,2046,1,2014,2001,1993,1,2038,2036,2018,1
0.241,1653,1685,1985,1,1999,1981,1984,1,1988,1964,1959,1,410,261,216,1,2081,2069,2060,1,2067,2051,2048,1,2014,2006,1996,1,2038,2040,2021,1
0.242,1573,1479,1862,1,1998,1978,1984,1,1986,1962,1959,1,409,258,216,1,2081,2068,2060,1,2068,2049,2048,1,2017,2005,1996,1,2040,2041,2021,1
0.243,1468,1479,1192,1,1995,1978,1975,1,1982,1962,1953,1,405,258,208,1,2078,2068,2056,1,2065,2049,2044,1,2014,2005,1992,1,2035,2041,2018,1
0.244,1468,1270,1022,1,1995,1971,1971,1,1982,1956,1949,1,405,251,204,1,2078,2061,2052,1,2065,2043,2040,1,2014,1998,1990,1,2035,2032,2013,1
0.245,1406,1279,878,1,1991,1968,1968,1,1977,1953,1946,1,399,250,201,1,2074,2060,2051,1,2060,2042,2038,1,2010,1997,1985,1,2030,2032,2010,1
0.246,1376,1241,903,1,1987,1965,1966,1,1973,1950,1944,1,390,241,199,1,2068,2054,2048,1,2052,2035,2035,1,2002,1989,1984,1,2024,2023,2007,1
0.247,1416,1327,1058,1,1986,1965,1965,1,1973,1949,1943,1,396,243,199,1,2068,2054,2045,1,2054,2034,2031,1,2003,1989,1979,1,2026,2024,2003,1
0.248,1443,1497,1138,1,1984,1965,1965,1,1971,1949,1942,1,393,246,199,1,2066,2053,2045,1,2050,2032,2031,1,1998,1987,1979,1,2021,2021,2003,1
0.249,1443,1497,1387,1,1984,1965,1965,1,1971,1949,1942,1,393,246,200,1,2066,2053,2044,1,2050,2032,2029,1,1998,1987,1976,1,2021,2021,2001,1
0.25,1500,1576,1387,1,1984,1965,1965,1,1972,1949,1942,1,396,246,200,1,2065,2053,2044,1,2049,2032,2029,1,1995,1987,1976,1,2019,2022,2001,1
0.251,1552,1576,1643,1,1985,1965,1967,1,1972,1949,1942,1,396,246,202,1,2065,2053,2043,1,2048,2032,2028,1,1995,1987,1973,1,2017,2022,2000,1
0.252,1554,1806,2052,1,1987,1970,1973,1,1975,1953,1947,1,405,253,207,1,2068,2057,2046,1,2053,2036,2031,1,1999,1990,1978,1,2022,2025,2003,1
0.253,1735,1910,2353,1,1991,1975,1977,1,1979,1959,1950,1,404,263,210,1,2070,2065,2051,1,2053,2044,2035,1,1999,1998,1979,1,2022,2031,2006,1
0.254,1887,2092,2474,1,1994,1978,1981,1,1980,1960,1953,1,399,258,213,1,2071,2063,2054,1,2061,2041,2038,1,2008,1995,1985,1,2031,2028,2009,1
0.255,1810,2025,2361,1,1996,1980,1984,1,1983,1962,1957,1,409,262,216,1,2076,2067,2058,1,2061,2047,2043,1,2008,2002,1991,1,2031,2035,2016,1
0.256,1769,1916,2330,1,1999,1980,1984,1,1987,1963,1957,1,412,262,216,1,2079,2068,2058,1,2066,2047,2043,1,2013,2004,1991,1,2037,2039,2016,1
0.257,1727,1916,2061,1,1999,1980,1984,1,1988,1963,1958,1,412,262,216,1,2080,2068,2060,1,2066,2047,2046,1,2015,2004,1993,1,2036,2039,2019,1
0.258,1727,1739,1883,1,1999,1981,1983,1,1988,1964,1958,1,412,262,215,1,2080,2068,2059,1,2066,2050,2046,1,2015,2006,1995,1,2036,2039,2019,1
0.259,1651,1567,1736,1,1998,1978,1982,1,1986,1962,1957,1,407,260,212,1,2078,2068,2060,1,2065,2051,2047,1,2015,2007,1993,1,2035,2040,2019,1
0.26,1469,1336,1364,1,1993,1974,1976,1,1981,1959,1953,1,397,250,208,1,2072,2062,2056,1,2058,2044,2044,1,2007,2000,1992,1,2029,2033,2016,1
0.261,1479,1281,1192,1,1991,1971,1971,1,1979,1956,1949,1,401,249,205,1,2072,2060,2049,1,2060,2042,2036,1,2009,1998,1984,1,2031,2033,2009,1
0.262,1397,1318,1026,1,1987,1966,1968,1,1974,1951,1946,1,394,248,202,1,2068,2055,2049,1,2055,2037,2036,1,2004,1991,1984,1,2025,2026,2009,1
0.263,1397,1318,1029,1,1987,1966,1963,1,1974,1951,1942,1,394,248,200,1,2068,2055,2045,1,2055,2037,2032,1,2004,1991,1978,1,2025,2026,2003,1
0.264,1435,1382,1029,1,1984,1965,1963,1,1971,1949,1942,1,393,246,200,1,2064,2054,2045,1,2051,2035,2032,1,1999,1990,1978,1,2021,2026,2003,1
0.265,1462,1382,1225,1,1983,1965,1963,1,1970,1949,1941,1,391,246,200,1,2062,2054,2043,1,2048,2035,2029,1,1997,1990,1975,1,2018,2026,2001,1
0.266,1521,1465,1354,1,1983,1965,1963,1,1971,1949,1941,1,399,247,201,1,2064,2054,2042,1,2051,2034,2028,1,1999,1989,1976,1,2021,2026,2000,1
0.267,1566,1542,1443,1,1983,1966,1963,1,1970,1950,1941,1,393,253,201,1,2062,2057,2044,1,2047,2038,2029,1,1994,1992,1973,1,2016,2026,2000,1
0.268,1674,1627,1623,1,1985,1966,1965,1,1971,1949,1942,1,388,246,203,1,2061,2052,2044,1,2050,2030,2028,1,1996,1984,1974,1,2020,2019,1999,1
0.269,1683,1856,2348,1,1987,1971,1976,1,1974,1953,1951,1,399,253,212,1,2066,2057,2050,1,2050,2036,2034,1,1996,1990,1980,1,2020,2025,2006,1
0.27,1828,1967,2348,1,1994,1975,1976,1,1982,1957,1951,1,409,256,212,1,2073,2060,2050,1,2058,2039,2034,1,2004,1994,1980,1,2028,2031,2006,1
0.271,1850,1967,2480,1,1996,1975,1982,1,1984,1957,1956,1,409,256,216,1,2075,2060,2056,1,2060,2039,2040,1,2007,1994,1987,1,2030,2031,2013,1
0.272,1850,1869,2344,1,1996,1979,1983,1,1984,1962,1957,1,409,263,217,1,2075,2065,2057,1,2060,2046,2042,1,2007,1994,1990,1,2030,2030,2015,1
0.273,1838,1777,2272,1,1997,1980,1984,1,1985,1964,1958,1,407,267,217,1,2076,2069,2060,1,2060,2051,2045,1,2007,2001,1990,1,2030,2036,2017,1
0.274,1768,1710,2086,1,1997,1980,1984,1,1984,1963,1958,1,401,259,216,1,2075,2066,2059,1,2058,2046,2045,1,2006,1998,1993,1,2029,2032,2017,1
0.275,1725,1625,1791,1,1999,1980,1981,1,1986,1963,1957,1,408,261,212,1,2078,2069,2058,1,2064,2049,2044,1,2012,2002,1993,1,2035,2037,2018,1
0.276,1592,1625,1565,1,1994,1980,1979,1,1982,1963,1955,1,406,261,212,1,2076,2069,2058,1,2064,2049,2044,1,2012,2002,1993,1,2035,2037,2018,1
0.277,1592,1296,1233,1,1994,1972,1973,1,1982,1957,1950,1,406,250,207,1,2076,2062,2054,1,2064,2042,2040,1,2012,1996,1990,1,2035,2029,2013,1
0.278,1433,1253,1233,1,1988,1969,1973,1,1976,1954,1950,1,400,247,207,1,2070,2059,2054,1,2057,2039,2040,1,2005,1994,1990,1,2028,2029,2013,1
0.279,1401,1253,996,1,1986,1969,1965,1,1973,1954,1943,1,395,247,202,1,2066,2059,2048,1,2052,2039,2034,1,2001,1994,1982,1,2023,2029,2007,1
0.28,1435,1302,1052,1,1985,1967,1963,1,1973,1952,1942,1,400,249,201,1,2067,2058,2045,1,2054,2038,2031,1,2002,1993,1980,1,2025,2028,2004,1
0.283,1438,1381,1069,1,1983,1966,1962,1,1971,1951,1941,1,396,254,200,1,2064,2060,2045,1,2050,2040,2031,1,1998,1994,1976,1,2020,2028,2002,1
0.283,1469,1447,1202,1,1981,1965,1962,1,1968,1948,1941,1,387,245,201,1,2061,2054,2044,1,2047,2032,2029,1,1995,1986,1976,1,2018,2020,1999,1
0.284,1503,1514,1480,1,1981,1965,1963,1,1969,1948,1941,1,394,248,202,1,2063,2055,2042,1,2047,2034,2027,1,1995,1988,1973,1,2018,2022,1998,1
0.284,1571,1637,1480,1,1983,1966,1963,1,1970,1949,1941,1,399,248,202,1,2062,2053,2042,1,2046,2032,2027,1,1992,1986,1973,1,2016,2022,1998,1
0.285,1675,1637,2012,1,1987,1966,1969,1,1974,1949,1945,1,401,248,207,1,2064,2053,2045,1,2048,2032,2029,1,1995,1986,1974,1,2017,2022,2000,1
0.286,1675,2057,2321,1,1987,1975,1975,1,1974,1958,1950,1,401,259,212,1,2064,2059,2048,1,2048,2038,2032,1,1995,1986,1979,1,2017,2021,2003,1
0.287,1786,2043,2546,1,1991,1978,1979,1,1978,1961,1953,1,403,264,214,1,2068,2065,2052,1,2051,2044,2036,1,1999,1995,1980,1,2021,2029,2007,1
0.288,1876,2108,2517,1,1994,1979,1981,1,1980,1962,1955,1,399,258,216,1,2069,2063,2052,1,2051,2041,2038,1,1999,1993,1986,1,2031,2026,2010,1
0.289,1802,2006,2340,1,1996,1981,1982,1,1983,1964,1957,1,409,261,217,1,2074,2066,2056,1,2059,2045,2042,1,2007,1998,1990,1,2031,2033,2015,1
0.29,1731,2006,2253,1,1998,1981,1983,1,1986,1964,1957,1,412,261,217,1,2078,2066,2056,1,2064,2045,2042,1,2012,1998,1990,1,2036,2033,2015,1
0.291,1731,1797,2085,1,1998,1980,1983,1,1986,1964,1957,1,412,259,216,1,2078,2067,2057,1,2064,2046,2043,1,2012,2000,1993,1,2036,2034,2015,1
0.292,1658,1626,2085,1,1997,1978,1983,1,1985,1963,1957,1,408,258,216,1,2078,2067,2057,1,2065,2046,2043,1,2014,2001,1993,1,2037,2037,2015,1
0.293,1544,1626,1422,1,1994,1978,1976,1,1982,1963,1952,1,403,258,210,1,2075,2067,2055,1,2061,2046,2041,1,2010,2001,1988,1,2032,2037,2014,1
0.294,1541,1485,1184,1,1992,1973,1971,1,1980,1959,1948,1,407,257,207,1,2075,2066,2051,1,2063,2046,2037,1,2011,2001,1986,1,2034,2036,2010,1
0.295,1445,1459,985,1,1988,1970,1968,1,1975,1956,1945,1,399,257,204,1,2070,2065,2050,1,2057,2046,2035,1,2006,2001,1982,1,2028,2035,2008,1
0.296,1377,1378,967,1,1985,1966,1965,1,1971,1952,1942,1,388,248,202,1,2065,2058,2047,1,2051,2037,2032,1,1999,1992,1980,1,2022,2025,2004,1
0.297,1429,1450,1077,1,1984,1963,1964,1,1971,1948,1941,1,395,242,201,1,2065,2051,2045,1,2051,2030,2030,1,1999,1984,1978,1,2022,2017,2001,1
0.298,1499,1527,1077,1,1981,1963,1964,1,1969,1947,1941,1,396,242,201,1,2063,2050,2045,1,2048,2029,2030,1,1996,1983,1978,1,2019,2018,2001,1
0.299,1546,1527,1362,1,1981,1963,1964,1,1969,1947,1941,1,395,242,202,1,2062,2050,2042,1,2046,2029,2027,1,1994,1983,1974,1,2016,2018,1999,1
0.3,1546,1676,1526,1,1981,1964,1964,1,1969,1947,1941,1,395,247,203,1,2062,2050,2041,1,2046,2029,2026,1,1994,1976,1974,1,2016,2011,1997,1
0.301,1617,1818,1645,1,1982,1967,1965,1,1969,1949,1941,1,392,252,202,1,2060,2053,2042,1,2043,2033,2026,1,1990,1982,1971,1,2013,2017,1997,1
0.302,1863,2043,2054,1,1987,1968,1970,1,1973,1950,1945,1,391,248,206,1,2061,2050,2042,1,2042,2029,2026,1,1989,1978,1974,1,2021,2013,1999,1
0.303,1845,2170,2326,1,1990,1973,1979,1,1977,1955,1953,1,403,256,214,1,2067,2056,2050,1,2051,2036,2034,1,1997,1986,1982,1,2021,2021,2006,1
0.304,1948,2170,2552,1,1995,1973,1979,1,1983,1955,1953,1,411,256,214,1,2074,2056,2050,1,2059,2036,2034,1,2005,1986,1982,1,2030,2021,2006,1
0.305,1948,2161,2530,1,1995,1978,1982,1,1983,1960,1956,1,411,259,216,1,2074,2062,2053,1,2059,2041,2037,1,2005,1994,1986,1,2030,2028,2009,1
0.306,1985,2073,2530,1,1998,1979,1982,1,1985,1961,1956,1,411,261,216,1,2077,2065,2053,1,2062,2044,2037,1,2009,1998,1986,1,2034,2033,2009,1
0.307,1955,2073,2269,1,1998,1979,1982,1,1985,1961,1956,1,407,261,216,1,2076,2065,2056,1,2061,2044,2041,1,2009,1998,1988,1,2033,2033,2014,1
0.308,1938,1978,2118,1,1999,1980,1982,1,1986,1963,1956,1,414,263,216,1,2079,2067,2055,1,2066,2047,2041,1,2014,2001,1991,1,2038,2036,2015,1
0.309,1890,1823,2014,1,1997,1978,1982,1,1984,1963,1956,1,407,267,214,1,2077,2070,2057,1,2063,2052,2043,1,2011,1998,1990,1,2035,2032,2016,1
0.31,1646,1580,1624,1,1992,1975,1977,1,1976,1959,1952,1,397,256,210,1,2071,2064,2054,1,2057,2044,2040,1,2005,1998,1990,1,2029,2032,2013,1
0.311,1690,1391,1364,1,1990,1968,1971,1,1976,1952,1948,1,397,247,206,1,2071,2057,2051,1,2057,2036,2037,1,2005,1990,1987,1,2029,2024,2008,1
0.312,1650,1423,1364,1,1986,1965,1971,1,1972,1949,1948,1,395,245,206,1,2066,2055,2051,1,2052,2034,2037,1,1999,1989,1987,1,2023,2024,2008,1
0.313,1643,1423,1259,1,1984,1965,1965,1,1969,1949,1942,1,392,245,201,1,2063,2055,2045,1,2048,2034,2030,1,1996,1989,1979,1,2018,2024,2002,1
0.314,1723,1528,1365,1,1984,1964,1964,1,1969,1948,1941,1,399,246,201,1,2064,2054,2042,1,2050,2032,2027,1,1997,1987,1977,1,2020,2023,1999,1
0.392,1738,1638,1419,1,1982,1964,1963,1,1967,1948,1940,1,392,251,200,1,2061,2056,2042,1,2045,2035,2027,1,1992,1990,1973,1,2015,2024,1998,1
0.392,1770,1725,1550,1,1982,1964,1963,1,1966,1946,1940,1,385,244,200,1,2061,2050,2041,1,2044,2028,2026,1,1990,1982,1973,1,2015,2016,1996,1
0.392,1825,1890,1550,1,1982,1965,1963,1,1968,1946,1940,1,394,243,200,1,2061,2047,2041,1,2044,2024,2026,1,1990,1978,1973,1,2015,2012,1996,1
0.41,1898,1890,1874,1,1984,1965,1966,1,1970,1946,1940,1,397,243,202,1,2062,2047,2041,1,2046,2024,2025,1,1993,1978,1970,1,2015,2012,1995,1
0.41,1898,2394,2331,1,1984,1972,1972,1,1970,1953,1945,1,397,251,206,1,2062,2053,2044,1,2046,2030,2028,1,1993,1982,1975,1,2015,2016,1998,1
0.41,2167,2464,2331,1,1991,1976,1972,1,1977,1957,1945,1,402,257,206,1,2069,2058,2044,1,2053,2036,2028,1,2000,1988,1975,1,2023,2023,1998,1
0.411,2257,2594,2569,1,1994,1978,1977,1,1980,1958,1949,1,402,252,210,1,2071,2056,2049,1,2054,2034,2033,1,2001,1987,1980,1,2024,2021,2002,1
0.411,2200,2495,2560,1,1996,1979,1980,1,1983,1960,1952,1,412,259,213,1,2076,2062,2050,1,2061,2042,2035,1,2007,1996,1985,1,2030,2030,2007,1
0.412,2217,2363,2583,1,1997,1980,1982,1,1983,1962,1954,1,410,266,213,1,2076,2068,2054,1,2061,2045,2039,1,2008,1999,1985,1,2030,2032,2010,1
0.412,2205,2277,2464,1,1998,1980,1982,1,1984,1961,1955,1,407,259,213,1,2077,2065,2054,1,2063,2045,2040,1,2010,1999,1988,1,2033,2032,2012,1
0.412,2177,2130,2262,1,1998,1980,1981,1,1984,1962,1954,1,407,257,211,1,2077,2065,2055,1,2063,2044,2041,1,2010,1999,1990,1,2033,2032,2012,1
0.412,2090,1912,2262,1,1996,1976,1981,1,1981,1959,1954,1,405,254,211,1,2075,2063,2055,1,2061,2043,2041,1,2009,1998,1990,1,2032,2033,2012,1
0.412,1987,1912,1542,1,1992,1976,1972,1,1977,1959,1948,1,398,254,204,1,2070,2063,2050,1,2056,2043,2036,1,2005,1998,1984,1,2027,2033,2008,1
0.412,2009,1797,1410,1,1990,1972,1968,1,1976,1955,1945,1,403,251,202,1,2070,2060,2046,1,2057,2040,2032,1,2006,1995,1982,1,2028,2031,2005,1
0.413,1911,1823,1290,1,1986,1969,1966,1,1972,1953,1943,1,395,254,200,1,2065,2060,2046,1,2050,2041,2031,1,1999,1995,1977,1,2021,2029,2003,1
0.413,1876,1792,1355,1,1984,1966,1964,1,1968,1949,1941,1,385,245,199,1,2060,2053,2043,1,2046,2032,2028,1,1994,1986,1976,1,2018,2020,1999,1
0.413,1950,1955,1355,1,1983,1964,1964,1,1968,1946,1941,1,393,241,199,1,2062,2048,2043,1,2046,2026,2028,1,1994,1979,1976,1,2018,2013,1999,1
0.413,1990,1955,1650,1,1982,1964,1964,1,1968,1946,1940,1,394,241,199,1,2062,2048,2041,1,2046,2026,2025,1,1994,1979,1971,1,2016,2013,1996,1
0.413,1990,2110,1823,1,1982,1964,1964,1,1968,1945,1940,1,394,243,199,1,2062,2048,2040,1,2046,2025,2024,1,1994,1978,1971,1,2016,2011,1994,1
0.413,2082,2187,1823,1,1983,1966,1964,1,1968,1946,1940,1,393,247,199,1,2061,2049,2040,1,2044,2026,2024,1,1991,1979,1971,1,2014,2013,1994,1
0.414,2199,2268,2127,1,1985,1966,1967,1,1971,1945,1942,1,395,241,202,1,2061,2046,2040,1,2043,2021,2024,1,1990,1973,1971,1,2012,2007,1993,1
0.414,2185,2475,2517,1,1988,1971,1973,1,1974,1950,1946,1,404,247,207,1,2065,2051,2043,1,2049,2027,2027,1,1996,1979,1976,1,2019,2014,1997,1
0.414,2298,2495,2813,1,1991,1976,1977,1,1977,1955,1949,1,405,259,210,1,2068,2059,2048,1,2052,2036,2031,1,1999,1989,1977,1,2020,2022,2001,1
0.414,2449,2597,2882,1,1995,1978,1980,1,1981,1957,1952,1,406,255,213,1,2073,2058,2050,1,2057,2036,2034,1,2005,1989,1982,1,2027,2022,2004,1
0.414,2379,2479,2791,1,1995,1980,1982,1,1981,1961,1953,1,406,257,214,1,2073,2061,2053,1,2057,2040,2037,1,2005,1993,1986,1,2027,2026,2007,1
0.414,2312,2386,2791,1,1998,1980,1982,1,1984,1961,1953,1,409,257,214,1,2076,2063,2053,1,2061,2042,2037,1,2008,1996,1986,1,2031,2031,2007,1
0.414,2272,2386,2509,1,1999,1980,1982,1,1984,1961,1955,1,407,257,215,1,2075,2063,2055,1,2060,2042,2039,1,2008,1996,1988,1,2030,2031,2012,1
0.414,2230,2252,2235,1,1999,1980,1980,1,1985,1961,1954,1,413,259,214,1,2077,2064,2054,1,2065,2043,2039,1,2013,1998,1989,1,2036,2034,2012,1
0.415,2109,2071,2020,1,1995,1976,1978,1,1981,1959,1952,1,404,261,211,1,2074,2065,2055,1,2060,2045,2040,1,2007,1999,1987,1,2030,2034,2012,1
0.415,1913,1803,1676,1,1989,1971,1973,1,1975,1954,1948,1,391,249,207,1,2067,2059,2051,1,2053,2038,2036,1,2000,1992,1985,1,2024,2026,2008,1
0.415,1950,1779,1444,1,1987,1968,1965,1,1974,1951,1942,1,397,249,202,1,2067,2058,2045,1,2053,2038,2029,1,2000,1992,1977,1,2024,2026,2002,1
0.415,1943,1779,1444,1,1984,1968,1965,1,1970,1951,1942,1,396,249,202,1,2062,2058,2045,1,2048,2038,2029,1,1995,1992,1977,1,2019,2026,2002,1
0.415,1943,1836,1498,1,1984,1965,1964,1,1970,1947,1940,1,396,246,201,1,2062,2052,2042,1,2048,2031,2026,1,1995,1983,1975,1,2019,2017,1999,1
0.415,1980,1927,1498,1,1981,1965,1964,1,1968,1947,1940,1,393,248,201,1,2060,2052,2042,1,2045,2030,2026,1,1991,1983,1975,1,2015,2017,1999,1
0.415,2010,1990,1651,1,1981,1964,1964,1,1967,1945,1940,1,391,241,201,1,2058,2046,2040,1,2042,2024,2024,1,1988,1976,1973,1,2011,2010,1996,1
0.416,2076,2059,1837,1,1981,1964,1964,1,1968,1946,1940,1,400,247,203,1,2060,2049,2038,1,2046,2028,2022,1,1991,1980,1973,1,2014,2014,1995,1
0.416,2116,2149,1970,1,1981,1966,1965,1,1968,1948,1940,1,398,254,203,1,2059,2052,2039,1,2043,2026,2022,1,1989,1978,1969,1,2011,2012,1994,1
0.416,2354,2306,2324,1,1988,1967,1968,1,1974,1948,1942,1,402,248,206,1,2065,2048,2039,1,2048,2026,2022,1,1993,1978,1971,1,2016,2012,1994,1
0.416,2332,2657,2660,1,1988,1975,1974,1,1974,1955,1947,1,402,255,211,1,2065,2055,2044,1,2048,2032,2027,1,1993,1984,1976,1,2016,2017,1997,1
0.416,2433,2626,2660,1,1994,1978,1974,1,1980,1958,1947,1,409,258,211,1,2071,2058,2044,1,2055,2035,2027,1,2000,1989,1976,1,2023,2024,1997,1
0.416,2421,2626,2781,1,1996,1978,1980,1,1982,1958,1952,1,409,258,215,1,2072,2058,2050,1,2055,2035,2034,1,2001,1989,1982,1,2024,2024,2005,1
0.416,2373,2504,2666,1,1997,1979,1981,1,1984,1961,1954,1,416,263,217,1,2076,2063,2051,1,2061,2041,2035,1,2007,1995,1985,1,2031,2030,2008,1
0.416,2348,2386,2610,1,1997,1979,1982,1,1983,1962,1954,1,410,267,216,1,2074,2068,2054,1,2058,2047,2038,1,2005,2001,1985,1,2029,2035,2011,1
0.416,2283,2292,2469,1,1997,1979,1982,1,1981,1961,1954,1,400,260,216,1,2072,2064,2054,1,2060,2042,2039,1,2007,1996,1988,1,2032,2030,2011,1
0.416,2248,2135,1859,1,1998,1978,1976,1,1983,1960,1950,1,408,261,211,1,2075,2065,2051,1,2060,2045,2036,1,2007,1999,1985,1,2032,2034,2010,1
0.417,2093,2135,1859,1,1993,1978,1976,1,1978,1960,1950,1,403,261,211,1,2070,2065,2051,1,2055,2045,2036,1,2003,1999,1985,1,2028,2034,2010,1
0.417,2093,1753,1578,1,1993,1969,1971,1,1978,1952,1946,1,403,252,206,1,2070,2058,2048,1,2055,2037,2032,1,2003,1991,1982,1,2028,2024,2005,1
0.417,1952,1756,1578,1,1986,1967,1971,1,1971,1950,1946,1,395,251,206,1,2064,2056,2048,1,2049,2034,2032,1,1997,1989,1982,1,2022,2023,2005,1
0.417,1924,1710,1503,1,1983,1964,1967,1,1968,1947,1943,1,390,242,203,1,2061,2050,2045,1,2044,2027,2028,1,1992,1981,1979,1,2016,2015,2000,1
0.417,1996,1811,1608,1,1983,1963,1964,1,1968,1946,1941,1,397,244,202,1,2062,2050,2041,1,2047,2028,2025,1,1994,1982,1977,1,2018,2017,1997,1
0.417,2030,1917,1653,1,1982,1964,1963,1,1966,1947,1940,1,394,252,201,1,2060,2052,2041,1,2044,2025,2024,1,1991,1978,1972,1,2014,2012,1995,1
0.417,2108,2001,1795,1,1981,1963,1963,1,1965,1945,1939,1,391,245,202,1,2058,2048,2039,1,2041,2025,2022,1,1988,1978,1971,1,2012,2012,1993,1
0.417,2108,2162,1983,1,1981,1964,1964,1,1965,1945,1939,1,391,246,202,1,2058,2047,2038,1,2041,2023,2021,1,1988,1976,1970,1,2012,2009,1991,1
0.417,2198,2359,1983,1,1982,1967,1964,1,1966,1948,1939,1,394,250,202,1,2058,2049,2038,1,2041,2025,2021,1,1987,1978,1970,1,2011,2012,1991,1
0.417,2360,2359,2768,1,1986,1967,1973,1,1970,1948,1946,1,396,250,211,1,2061,2049,2043,1,2043,2025,2025,1,1989,1978,1970,1,2013,2012,1996,1
0.418,2327,2503,2966,1,1989,1973,1977,1,1975,1954,1950,1,408,259,215,1,2067,2056,2045,1,2051,2032,2028,1,1996,1985,1976,1,2020,2019,2000,1
0.418,2448,2477,3137,1,1992,1977,1981,1,1978,1959,1953,1,408,268,217,1,2069,2063,2050,1,2051,2041,2032,1,1997,1994,1977,1,2021,2024,2003,1
0.418,2516,2523,3061,1,1994,1978,1982,1,1981,1959,1955,1,407,261,219,1,2073,2060,2051,1,2057,2038,2034,1,2003,1991,1981,1,2027,2024,2005,1
0.418,2442,2389,3061,1,1996,1979,1982,1,1981,1961,1955,1,407,259,219,1,2073,2061,2051,1,2057,2040,2034,1,2003,1993,1981,1,2027,2027,2005,1
0.418,2375,2389,2741,1,1997,1979,1982,1,1982,1961,1955,1,409,259,217,1,2074,2061,2054,1,2059,2040,2037,1,2006,1993,1984,1,2027,2027,2010,1
0.418,2375,2268,2567,1,1997,1980,1982,1,1982,1962,1955,1,409,261,216,1,2074,2063,2054,1,2059,2042,2038,1,2006,1995,1987,1,2027,2028,2010,1
0.418,2236,2083,2567,1,1995,1978,1982,1,1980,1961,1955,1,402,261,216,1,2073,2063,2054,1,2058,2042,2038,1,2011,1996,1987,1,2032,2030,2010,1
0.418,2060,1842,2095,1,1991,1973,1976,1,1976,1957,1951,1,396,251,212,1,2069,2058,2051,1,2052,2036,2035,1,2004,1990,1985,1,2025,2024,2007,1
0.418,2045,1780,1791,1,1990,1970,1970,1,1975,1954,1946,1,401,254,208,1,2069,2059,2046,1,2053,2039,2030,1,2004,1992,1982,1,2026,2025,2001,1
0.418,1947,1828,1545,1,1987,1969,1966,1,1971,1948,1943,1,395,248,204,1,2064,2053,2045,1,2048,2031,2029,1,1998,1984,1977,1,2020,2018,2001,1
0.418,1938,1780,1473,1,1984,1966,1962,1,1969,1948,1939,1,395,248,200,1,2063,2053,2041,1,2047,2031,2025,1,1996,1984,1971,1,2016,2018,1996,1
0.419,1938,1913,1590,1,1984,1964,1962,1,1969,1946,1938,1,395,246,199,1,2063,2049,2040,1,2047,2027,2023,1,1996,1979,1971,1,2016,2012,1993,1
0.43,1964,1991,1590,1,1981,1964,1962,1,1967,1946,1938,1,393,248,199,1,2060,2049,2040,1,2043,2027,2023,1,1990,1979,1971,1,2012,2013,1993,1
0.431,2008,2053,1758,1,1981,1963,1962,1,1966,1944,1938,1,391,241,199,1,2058,2045,2038,1,2040,2021,2021,1,1987,1973,1971,1,2009,2007,1992,1
0.431,2017,2108,1949,1,1981,1964,1963,1,1967,1945,1938,1,399,247,201,1,2060,2048,2036,1,2043,2025,2020,1,1990,1977,1971,1,2012,2011,1991,1
0.431,2078,2266,2099,1,1983,1969,1965,1,1968,1950,1939,1,399,258,202,1,2060,2054,2038,1,2042,2028,2021,1,1989,1981,1967,1,2010,2014,1991,1
0.432,2340,2566,2548,1,1991,1972,1971,1,1975,1951,1943,1,403,254,207,1,2067,2052,2040,1,2049,2028,2024,1,1995,1981,1971,1,2018,2014,1994,1
0.432,2340,2732,2548,1,1991,1978,1971,1,1975,1957,1943,1,403,258,207,1,2067,2058,2040,1,2049,2034,2024,1,1995,1987,1971,1,2018,2020,1994,1
0.432,2347,2732,2936,1,1994,1978,1980,1,1979,1957,1951,1,407,258,214,1,2070,2058,2048,1,2053,2034,2032,1,1999,1987,1978,1,2020,2020,2004,1
0.432,2347,2546,2855,1,1994,1980,1982,1,1979,1960,1953,1,407,262,215,1,2070,2062,2050,1,2053,2039,2034,1,1999,1993,1982,1,2020,2026,2006,1
0.432,2312,2415,2822,1,1995,1980,1983,1,1980,1961,1954,1,407,265,215,1,2072,2065,2053,1,2056,2044,2037,1,2003,1998,1982,1,2023,2031,2009,1
0.433,2258,2321,2644,1,1996,1979,1983,1,1980,1960,1954,1,401,258,215,1,2071,2062,2053,1,2054,2040,2038,1,2002,1993,1985,1,2024,2027,2010,1
0.433,2207,2218,2379,1,1997,1980,1981,1,1982,1961,1954,1,409,261,214,1,2074,2065,2052,1,2060,2044,2037,1,2007,1998,1986,1,2030,2032,2011,1
0.433,2102,2070,2174,1,1995,1973,1980,1,1980,1956,1953,1,403,256,212,1,2071,2060,2053,1,2056,2039,2038,1,2004,1994,1986,1,2027,2027,2011,1
0.433,1985,1781,1438,1,1991,1973,1970,1,1976,1956,1946,1,401,256,204,1,2068,2060,2048,1,2053,2039,2033,1,2002,1994,1980,1,2023,2027,2006,1
0.433,1985,1580,1294,1,1991,1966,1966,1,1976,1949,1943,1,401,248,201,1,2068,2054,2045,1,2053,2033,2030,1,2002,1986,1978,1,2023,2019,2002,1
0.433,1837,1615,1294,1,1985,1964,1966,1,1970,1947,1943,1,392,248,201,1,2062,2053,2045,1,2047,2031,2030,1,1994,1985,1978,1,2018,2019,2002,1
0.433,1803,1601,1311,1,1982,1961,1964,1,1967,1944,1941,1,388,240,200,1,2059,2048,2043,1,2042,2024,2027,1,1989,1978,1975,1,2013,2011,1997,1
0.434,1876,1698,1456,1,1982,1961,1962,1,1967,1944,1939,1,395,243,200,1,2060,2048,2040,1,2045,2025,2024,1,1991,1979,1974,1,2016,2013,1995,1
0.434,1881,1800,1535,1,1981,1963,1962,1,1966,1946,1939,1,393,253,200,1,2058,2046,2040,1,2042,2024,2023,1,1988,1976,1969,1,2012,2010,1993,1
0.434,1881,1881,1789,1,1981,1963,1962,1,1966,1944,1939,1,393,245,200,1,2058,2046,2039,1,2042,2024,2022,1,1988,1976,1966,1,2012,2010,1992,1
0.434,1971,1981,1789,1,1982,1963,1962,1,1967,1944,1939,1,398,246,200,1,2058,2046,2039,1,2042,2023,2022,1,1987,1976,1966,1,2011,2011,1992,1
0.435,2062,1981,2264,1,1985,1963,1968,1,1970,1944,1942,1,400,246,205,1,2061,2046,2040,1,2044,2023,2022,1,1990,1976,1966,1,2011,2011,1992,1
0.435,2062,2376,2581,1,1985,1972,1973,1,1970,1953,1946,1,400,257,209,1,2061,2053,2043,1,2044,2030,2026,1,1990,1982,1972,1,2011,2016,1996,1
0.435,2204,2377,2819,1,1990,1976,1978,1,1974,1956,1949,1,401,262,212,1,2064,2058,2048,1,2046,2036,2030,1,1993,1989,1973,1,2014,2024,1999,1
0.435,2258,2444,2823,1,1992,1977,1981,1,1977,1957,1952,1,400,256,214,1,2066,2057,2049,1,2047,2034,2032,1,1993,1987,1978,1,2016,2022,2002,1
0.435,2200,2340,2652,1,1995,1979,1981,1,1981,1960,1953,1,409,260,216,1,2071,2060,2053,1,2054,2038,2037,1,2001,1992,1982,1,2024,2027,2007,1
0.436,2177,2106,2570,1,1995,1980,1982,1,1981,1963,1954,1,406,263,216,1,2072,2062,2053,1,2054,2042,2037,1,2001,1996,1982,1,2024,2029,2007,1
0.436,2119,2106,2270,1,1996,1980,1981,1,1982,1963,1954,1,406,263,215,1,2073,2062,2054,1,2057,2042,2039,1,2005,1996,1984,1,2026,2029,2010,1
0.436,2119,1843,1952,1,1996,1977,1978,1,1982,1960,1953,1,406,259,212,1,2073,2062,2053,1,2057,2042,2038,1,2005,1996,1985,1,2026,2029,2009,1
0.436,1885,1676,1952,1,1991,1972,1978,1,1977,1956,1953,1,399,256,212,1,2070,2061,2053,1,2055,2041,2038,1,2007,1996,1985,1,2029,2030,2009,1
0.436,1730,1460,1558,1,1988,1967,1972,1,1973,1952,1948,1,391,246,207,1,2064,2055,2048,1,2049,2033,2034,1,2000,1988,1983,1,2022,2021,2006,1
0.436,1756,1444,1407,1,1986,1965,1968,1,1972,1949,1944,1,397,245,204,1,2064,2053,2043,1,2051,2030,2028,1,2001,1986,1980,1,2023,2021,2002,1
0.436,1707,1507,1261,1,1984,1964,1964,1,1969,1949,1941,1,393,245,201,1,2060,2049,2043,1,2046,2026,2027,1,1995,1980,1975,1,2017,2013,1999,1
0.437,1707,1518,1313,1,1984,1962,1961,1,1969,1946,1937,1,393,245,199,1,2060,2049,2040,1,2046,2026,2023,1,1995,1980,1969,1,2017,2013,1994,1
0.437,1708,1619,1313,1,1981,1961,1961,1,1967,1945,1937,1,394,244,199,1,2058,2048,2040,1,2043,2024,2023,1,1990,1979,1969,1,2014,2014,1994,1
0.437,1733,1619,1536,1,1980,1961,1961,1,1966,1945,1937,1,394,244,200,1,2057,2048,2038,1,2042,2024,2020,1,1989,1979,1966,1,2011,2014,1992,1
0.437,1733,1783,1688,1,1980,1962,1962,1,1966,1945,1937,1,394,248,201,1,2057,2047,2037,1,2042,2024,2019,1,1989,1971,1966,1,2011,2010,1991,1
0.437,1775,1900,1796,1,1980,1964,1963,1,1966,1947,1938,1,393,253,202,1,2056,2050,2039,1,2039,2027,2020,1,1985,1975,1963,1,2008,2013,1990,1
0.438,1982,2099,2170,1,1983,1965,1967,1,1969,1947,1941,1,391,248,205,1,2057,2046,2040,1,2038,2022,2021,1,1984,1971,1966,1,2008,2007,1991,1
0.438,1929,2249,2463,1,1987,1970,1972,1,1974,1951,1945,1,403,255,213,1,2063,2052,2047,1,2046,2029,2029,1,1991,1979,1974,1,2015,2015,2001,1
0.438,1967,2253,2702,1,1993,1973,1976,1,1980,1954,1948,1,411,256,213,1,2070,2055,2047,1,2054,2032,2029,1,2000,1984,1974,1,2024,2021,2001,1
0.438,1959,2253,2666,1,1995,1973,1981,1,1982,1954,1953,1,412,256,215,1,2072,2055,2051,1,2056,2032,2034,1,2003,1984,1980,1,2025,2021,2008,1
0.438,1959,2069,2500,1,1995,1976,1981,1,1982,1959,1954,1,412,260,215,1,2072,2060,2052,1,2056,2038,2036,1,2003,1991,1983,1,2025,2025,2009,1
0.439,1900,1969,2500,1,1996,1977,1981,1,1982,1961,1954,1,406,263,215,1,2073,2063,2052,1,2058,2042,2036,1,2010,1995,1983,1,2033,2030,2009,1
0.439,1854,1894,2291,1,1995,1976,1980,1,1981,1960,1954,1,402,256,215,1,2072,2060,2053,1,2056,2038,2037,1,2006,1991,1986,1,2030,2026,2009,1
0.439,1783,1732,1858,1,1995,1975,1976,1,1982,1959,1951,1,408,260,212,1,2074,2064,2050,1,2060,2044,2035,1,2010,1997,1986,1,2034,2031,2007,1
0.439,1634,1633,1533,1,1991,1972,1973,1,1978,1951,1949,1,401,252,209,1,2070,2057,2050,1,2055,2036,2035,1,2005,1989,1983,1,2028,2023,2007,1
0.439,1634,1434,1049,1,1991,1967,1964,1,1978,1951,1942,1,401,252,202,1,2070,2057,2045,1,2055,2036,2029,1,2005,1989,1975,1,2028,2023,2001,1
0.439,1487,1377,1049,1,1984,1964,1964,1,1971,1948,1942,1,398,248,202,1,2064,2053,2045,1,2049,2032,2029,1,1997,1986,1975,1,2021,2022,2001,1
0.439,1446,1377,982,1,1982,1964,1959,1,1969,1948,1937,1,395,248,199,1,2061,2053,2041,1,2045,2032,2024,1,1993,1986,1970,1,2016,2022,1996,1
0.44,1490,1402,1084,1,1981,1962,1959,1,1968,1946,1936,1,400,247,199,1,2061,2050,2039,1,2047,2029,2021,1,1994,1983,1969,1,2018,2020,1993,1
0.44,1475,1466,1140,1,1979,1962,1959,1,1966,1946,1936,1,396,250,199,1,2059,2051,2039,1,2044,2031,2021,1,1991,1984,1966,1,2014,2020,1992,1
0.44,1499,1517,1278,1,1979,1961,1959,1,1965,1944,1936,1,389,244,200,1,2056,2046,2036,1,2038,2024,2019,1,1984,1976,1966,1,2011,2012,1991,1
0.44,1510,1566,1437,1,1979,1962,1961,1,1966,1945,1937,1,397,248,202,1,2058,2048,2037,1,2042,2025,2018,1,1987,1977,1964,1,2011,2012,1990,1
0.44,1564,1800,1557,1,1980,1965,1961,1,1968,1948,1937,1,402,251,202,1,2058,2049,2037,1,2043,2025,2018,1,1987,1977,1964,1,2011,2014,1990,1
0.44,1661,1800,2281,1,1984,1965,1971,1,1973,1948,1944,1,406,251,210,1,2062,2049,2042,1,2046,2025,2024,1,1991,1977,1968,1,2013,2014,1996,1
0.441,1661,2054,2441,1,1984,1974,1975,1,1973,1956,1947,1,406,260,213,1,2062,2055,2045,1,2046,2032,2028,1,1991,1984,1974,1,2013,2019,2000,1
0.441,1728,1990,2574,1,1987,1976,1978,1,1976,1959,1950,1,407,264,215,1,2065,2060,2049,1,2049,2038,2032,1,1995,1990,1974,1,2017,2025,2003,1
0.441,1764,1984,2461,1,1990,1976,1980,1,1978,1959,1952,1,404,258,216,1,2066,2058,2050,1,2048,2035,2034,1,1994,1987,1979,1,2017,2022,2005,1
0.441,1711,1862,2230,1,1993,1976,1980,1,1981,1960,1953,1,411,261,217,1,2070,2061,2053,1,2055,2039,2037,1,2001,1992,1983,1,2025,2027,2009,1
0.441,1646,1862,2104,1,1994,1976,1980,1,1983,1960,1953,1,414,261,216,1,2074,2061,2053,1,2060,2039,2037,1,2006,1992,1983,1,2030,2027,2009,1
0.442,1646,1629,1881,1,1994,1976,1979,1,1983,1960,1953,1,414,257,215,1,2074,2061,2053,1,2060,2039,2038,1,2006,1992,1985,1,2030,2027,2009,1
0.442,1556,1427,1881,1,1992,1972,1979,1,1980,1957,1953,1,409,254,215,1,2072,2059,2053,1,2058,2038,2038,1,2004,1992,1985,1,2029,2029,2009,1
0.444,1418,1427,1144,1,1988,1972,1970,1,1976,1957,1947,1,402,254,208,1,2068,2059,2047,1,2053,2038,2033,1,2000,1992,1980,1,2023,2029,2005,1
0.444,1437,1314,1003,1,1986,1968,1966,1,1974,1953,1944,1,405,252,206,1,2068,2056,2043,1,2054,2035,2029,1,2001,1989,1977,1,2025,2026,2001,1
0.445,1348,1283,874,1,1982,1965,1962,1,1970,1950,1941,1,396,255,203,1,2063,2057,2043,1,2047,2036,2028,1,1994,1989,1973,1,2018,2024,1999,1
0.447,1278,1222,886,1,1978,1962,1959,1,1966,1946,1938,1,386,245,201,1,2058,2050,2040,1,2042,2027,2025,1,1989,1980,1971,1,2013,2015,1995,1
0.448,1338,1267,1086,1,1978,1960,1958,1,1966,1945,1936,1,394,247,201,1,2059,2050,2037,1,2042,2028,2021,1,1989,1981,1967,1,2013,2016,1991,1
0.449,1381,1333,1086,1,1977,1960,1958,1,1965,1944,1936,1,396,246,201,1,2058,2048,2037,1,2040,2025,2021,1,1986,1979,1967,1,2010,2016,1991,1
0.45,1411,1333,1289,1,1977,1960,1958,1,1965,1944,1936,1,396,246,202,1,2057,2048,2037,1,2039,2025,2019,1,1985,1979,1964,1,2008,2016,1990,1
0.451,1411,1448,1426,1,1977,1961,1960,1,1965,1945,1937,1,396,251,203,1,2057,2047,2036,1,2039,2023,2018,1,1985,1969,1964,1,2008,2004,1989,1
0.452,1497,1656,1553,1,1979,1965,1962,1,1967,1948,1938,1,395,257,204,1,2057,2052,2037,1,2037,2029,2019,1,1983,1977,1961,1,2006,2011,1989,1
0.453,1702,1977,1978,1,1984,1968,1968,1,1971,1950,1943,1,394,252,208,1,2059,2050,2039,1,2037,2026,2022,1,1983,1975,1967,1,2016,2009,1993,1
0.454,1664,1993,2123,1,1987,1972,1972,1,1975,1954,1950,1,405,258,214,1,2065,2055,2047,1,2046,2032,2030,1,1992,1982,1975,1,2016,2017,2002,1
0.454,1684,1993,2271,1,1993,1972,1975,1,1981,1954,1950,1,413,258,214,1,2071,2055,2047,1,2053,2032,2030,1,1999,1982,1975,1,2023,2017,2002,1
0.455,1684,1869,2196,1,1993,1975,1977,1,1981,1958,1951,1,413,259,215,1,2071,2059,2049,1,2053,2036,2033,1,1999,1988,1979,1,2023,2022,2004,1
0.456,1658,1771,2196,1,1995,1975,1977,1,1982,1959,1951,1,412,261,215,1,2073,2061,2049,1,2056,2039,2033,1,2002,1992,1979,1,2027,2027,2004,1
0.457,1637,1771,1921,1,1995,1975,1978,1,1982,1959,1953,1,408,261,216,1,2072,2061,2051,1,2055,2039,2035,1,2002,1992,1981,1,2026,2027,2007,1
0.458,1577,1666,1674,1,1995,1976,1976,1,1982,1960,1952,1,414,264,214,1,2075,2064,2050,1,2060,2042,2035,1,2007,1996,1984,1,2031,2031,2008,1
0.459,1466,1519,1478,1,1991,1973,1975,1,1978,1958,1951,1,403,266,212,1,2071,2065,2051,1,2054,2044,2036,1,2001,1998,1981,1,2026,2023,2008,1
0.46,1264,1303,1160,1,1985,1969,1969,1,1971,1953,1947,1,393,254,208,1,2064,2057,2047,1,2048,2035,2032,1,1995,1990,1980,1,2020,2023,2004,1
0.461,1303,1177,1014,1,1983,1963,1964,1,1971,1947,1943,1,393,245,205,1,2064,2050,2044,1,2048,2027,2028,1,1995,1981,1977,1,2020,2015,1999,1
0.462,1286,1214,1014,1,1979,1961,1964,1,1967,1945,1943,1,392,243,205,1,2060,2048,2044,1,2043,2025,2028,1,1989,1980,1977,1,2015,2015,1999,1
0.464,1309,1214,1042,1,1977,1961,1959,1,1965,1945,1938,1,391,243,201,1,2057,2048,2039,1,2040,2025,2022,1,1986,1980,1969,1,2011,2015,1993,1
0.465,1339,1302,1157,1,1977,1961,1959,1,1965,1944,1937,1,397,245,201,1,2058,2048,2037,1,2043,2024,2020,1,1989,1978,1968,1,2014,2014,1990,1
0.466,1365,1383,1222,1,1976,1961,1958,1,1964,1944,1936,1,395,251,201,1,2057,2051,2038,1,2040,2028,2020,1,1986,1981,1964,1,2009,2015,1989,1
0.467,1440,1461,1354,1,1976,1960,1959,1,1963,1942,1936,1,387,244,202,1,2056,2046,2037,1,2038,2021,2018,1,1984,1973,1964,1,2007,2008,1988,1
0.467,1440,1635,1354,1,1977,1961,1959,1,1964,1942,1936,1,396,244,202,1,2056,2043,2037,1,2038,2018,2018,1,1984,1969,1964,1,2007,2005,1988,1
0.468,1497,1635,1912,1,1981,1961,1965,1,1968,1942,1940,1,401,244,207,1,2059,2043,2039,1,2041,2018,2020,1,1988,1969,1964,1,2009,2005,1990,1
0.469,1497,2052,2226,1,1981,1970,1971,1,1968,1951,1944,1,401,254,211,1,2059,2051,2042,1,2041,2026,2024,1,1988,1977,1970,1,2009,2012,1994,1
0.471,1683,2019,2226,1,1988,1973,1971,1,1976,1955,1944,1,406,260,211,1,2066,2056,2042,1,2049,2031,2024,1,1995,1983,1970,1,2018,2019,1994,1
0.471,1711,2052,2274,1,1990,1974,1974,1,1978,1956,1948,1,405,255,214,1,2067,2055,2045,1,2049,2029,2028,1,1995,1981,1975,1,2018,2017,1998,1
0.472,1632,1904,2125,1,1992,1975,1975,1,1981,1958,1950,1,413,258,215,1,2071,2058,2046,1,2056,2035,2030,1,2001,1987,1980,1,2025,2024,2002,1
0.473,1591,1757,2054,1,1992,1977,1976,1,1981,1960,1951,1,410,265,215,1,2071,2063,2050,1,2056,2038,2034,1,2002,1991,1980,1,2025,2026,2005,1
0.475,1487,1643,1877,1,1992,1976,1976,1,1980,1959,1951,1,405,259,215,1,2071,2060,2050,1,2057,2038,2034,1,2004,1991,1983,1,2027,2026,2006,1
0.475,1487,1305,1493,1,1992,1972,1973,1,1980,1957,1949,1,405,255,212,1,2071,2059,2049,1,2057,2038,2034,1,2004,1991,1983,1,2027,2025,2005,1
0.476,1280,1181,1493,1,1987,1968,1973,1,1975,1954,1949,1,400,252,212,1,2067,2057,2049,1,2053,2036,2034,1,2000,1989,1983,1,2024,2025,2005,1
0.477,1184,1181,916,1,1984,1968,1963,1,1971,1954,1942,1,395,252,204,1,2063,2057,2043,1,2047,2036,2027,1,1995,1989,1973,1,2018,2025,1999,1
0.479,1225,1122,827,1,1982,1965,1960,1,1970,1950,1939,1,400,252,203,1,2063,2055,2040,1,2049,2035,2024,1,1996,1988,1972,1,2020,2024,1996,1
0.48,1141,1148,740,1,1979,1963,1958,1,1967,1948,1937,1,392,254,201,1,2058,2055,2040,1,2041,2035,2023,1,1988,1988,1968,1,2013,2023,1994,1
0.481,1124,1133,809,1,1976,1960,1957,1,1963,1944,1935,1,392,245,200,1,2056,2048,2037,1,2039,2026,2020,1,1985,1979,1967,1,2010,2014,1992,1
0.481,1167,1235,809,1,1976,1959,1957,1,1964,1942,1935,1,392,242,200,1,2056,2044,2037,1,2039,2021,2020,1,1985,1973,1967,1,2010,2007,1992,1
0.482,1213,1235,1043,1,1976,1959,1957,1,1965,1942,1934,1,394,242,200,1,2056,2044,2036,1,2038,2021,2018,1,1984,1973,1963,1,2007,2007,1990,1
0.483,1213,1315,1183,1,1976,1959,1958,1,1965,1943,1935,1,394,245,201,1,2056,2043,2036,1,2038,2019,2017,1,1984,1971,1963,1,2007,2005,1988,1
0.484,1311,1440,1183,1,1977,1961,1958,1,1965,1945,1935,1,394,249,201,1,2056,2045,2036,1,2036,2022,2017,1,1986,1974,1963,1,2009,2009,1988,1
0.485,1466,1645,1600,1,1981,1963,1963,1,1968,1946,1939,1,395,245,206,1,2058,2043,2037,1,2037,2018,2018,1,1986,1969,1966,1,2009,2004,1990,1
0.486,1453,1747,1884,1,1984,1968,1969,1,1972,1951,1944,1,405,254,211,1,2063,2050,2040,1,2045,2026,2022,1,1992,1977,1972,1,2016,2012,1995,1
0.487,1542,1665,2116,1,1987,1971,1973,1,1975,1955,1947,1,407,260,214,1,2065,2057,2045,1,2047,2034,2027,1,1993,1985,1972,1,2017,2019,1999,1
0.488,1526,1681,2069,1,1989,1972,1977,1,1978,1956,1951,1,410,260,216,1,2068,2057,2050,1,2051,2034,2032,1,1998,1985,1977,1,2020,2019,2005,1
0.49,1526,1497,1903,1,1989,1973,1977,1,1978,1958,1952,1,410,259,216,1,2068,2059,2050,1,2051,2037,2033,1,1998,1989,1980,1,2020,2023,2006,1
0.49,1449,1405,1903,1,1991,1974,1977,1,1979,1959,1952,1,408,260,216,1,2071,2060,2050,1,2055,2039,2033,1,2002,1992,1980,1,2024,2027,2006,1
0.492,1386,1333,1701,1,1991,1973,1977,1,1979,1958,1952,1,404,254,215,1,2069,2057,2050,1,2053,2035,2034,1,2000,1988,1982,1,2022,2022,2006,1
0.493,1358,1195,1316,1,1991,1970,1972,1,1980,1956,1949,1,410,255,212,1,2072,2058,2047,1,2057,2037,2032,1,2004,1991,1982,1,2027,2025,2005,1
0.494,1160,1120,1005,1,1987,1967,1969,1,1974,1953,1946,1,398,258,209,1,2066,2059,2047,1,2049,2039,2032,1,1997,1984,1978,1,2021,2018,2003,1
0.495,1019,986,839,1,1981,1963,1964,1,1968,1949,1942,1,391,248,205,1,2060,2052,2043,1,2043,2030,2028,1,1990,1984,1976,1,2015,2018,1999,1
0.495,1082,939,839,1,1981,1959,1964,1,1968,1944,1942,1,391,242,205,1,2060,2046,2043,1,2043,2024,2028,1,1990,1977,1976,1,2015,2010,1999,1
0.496,1096,939,746,1,1978,1959,1958,1,1966,1944,1937,1,391,242,200,1,2058,2046,2038,1,2041,2024,2022,1,1989,1977,1968,1,2011,2010,1993,1
0.497,1096,1061,843,1,1978,1957,1957,1,1966,1942,1935,1,391,243,199,1,2058,2044,2036,1,2041,2022,2020,1,1989,1974,1967,1,2011,2006,1991,1
0.498,1123,1136,898,1,1977,1958,1957,1,1965,1943,1935,1,392,247,199,1,2057,2045,2036,1,2039,2023,2020,1,1987,1975,1963,1,2008,2008,1990,1
0.499,1175,1201,1023,1,1975,1957,1957,1,1963,1942,1935,1,389,241,200,1,2055,2041,2035,1,2036,2017,2018,1,1982,1969,1963,1,2004,2002,1988,1
0.5,1188,1259,1185,1,1976,1958,1958,1,1964,1943,1936,1,396,248,202,1,2056,2045,2033,1,2039,2023,2016,1,1984,1974,1963,1,2007,2007,1987,1
0.501,1256,1374,1308,1,1977,1963,1959,1,1964,1948,1936,1,394,254,202,1,2055,2047,2034,1,2036,2024,2016,1,1982,1975,1960,1,2005,2009,1987,1
0.502,1353,1665,2051,1,1981,1966,1969,1,1969,1948,1944,1,400,254,209,1,2060,2047,2041,1,2042,2024,2022,1,1988,1975,1966,1,2009,2009,1993,1
0.503,1353,1868,2197,1,1981,1972,1973,1,1969,1955,1947,1,400,259,212,1,2060,2053,2044,1,2042,2030,2026,1,1988,1981,1971,1,2009,2015,1996,1
0.504,1495,1784,2197,1,1987,1974,1973,1,1976,1958,1947,1,405,263,212,1,2067,2057,2044,1,2049,2034,2026,1,1996,1986,1971,1,2018,2021,1996,1
0.506,1507,1759,2111,1,1989,1974,1976,1,1978,1958,1950,1,404,257,214,1,2068,2055,2046,1,2049,2031,2029,1,1996,1983,1975,1,2018,2018,1999,1
0.507,1422,1628,1916,1,1991,1974,1976,1,1980,1959,1951,1,411,260,215,1,2071,2058,2046,1,2055,2036,2031,1,2002,1989,1979,1,2024,2024,2002,1
0.508,1393,1510,1804,1,1991,1975,1977,1,1980,1960,1952,1,409,266,214,1,2071,2062,2049,1,2055,2038,2034,1,2002,1991,1979,1,2023,2025,2005,1
0.509,1280,1418,1612,1,1988,1974,1976,1,1977,1958,1952,1,401,259,214,1,2069,2059,2049,1,2054,2038,2034,1,2001,1991,1982,1,2024,2025,2005,1
0.509,1280,1085,1612,1,1988,1968,1976,1,1977,1953,1952,1,401,251,214,1,2069,2056,2049,1,2054,2035,2034,1,2001,1988,1982,1,2024,2021,2005,1
0.51,1160,1085,884,1,1985,1968,1965,1,1973,1953,1944,1,397,251,205,1,2065,2056,2045,1,2050,2035,2029,1,1998,1988,1976,1,2020,2021,2001,1
0.511,1160,984,782,1,1985,1962,1961,1,1973,1947,1941,1,397,246,202,1,2065,2050,2042,1,2050,2028,2026,1,1998,1982,1974,1,2020,2015,1997,1
0.512,1104,1000,691,1,1981,1959,1958,1,1969,1944,1938,1,394,246,199,1,2062,2050,2042,1,2046,2028,2025,1,1994,1982,1969,1,2015,2016,1995,1
0.513,1079,978,723,1,1978,1957,1957,1,1966,1941,1936,1,387,238,198,1,2056,2044,2038,1,2039,2020,2021,1,1986,1974,1967,1,2009,2008,1992,1
0.514,1107,1049,853,1,1977,1957,1957,1,1965,1941,1936,1,394,241,199,1,2057,2044,2035,1,2042,2020,2018,1,1988,1974,1963,1,2011,2010,1988,1
0.515,1122,1128,925,1,1976,1957,1957,1,1964,1941,1935,1,391,243,199,1,2055,2043,2036,1,2038,2019,2018,1,1983,1971,1963,1,2006,2006,1988,1
0.516,1152,1195,1139,1,1976,1957,1958,1,1964,1941,1935,1,393,243,199,1,2054,2043,2035,1,2037,2019,2016,1,1983,1971,1960,1,2004,2006,1987,1
0.517,1152,1327,1313,1,1976,1959,1959,1,1964,1941,1936,1,393,245,201,1,2054,2042,2035,1,2037,2018,2016,1,1983,1969,1961,1,2004,2004,1986,1
0.518,1294,1576,1313,1,1980,1964,1959,1,1967,1946,1936,1,397,251,201,1,2057,2047,2035,1,2039,2023,2016,1,1983,1975,1961,1,2007,2010,1986,1
0.519,1458,1892,1761,1,1983,1967,1965,1,1970,1948,1941,1,397,248,206,1,2059,2046,2039,1,2040,2021,2020,1,1985,1972,1967,1,2009,2007,1990,1
0.52,1419,1846,1911,1,1986,1971,1969,1,1975,1953,1945,1,409,258,211,1,2065,2053,2041,1,2048,2030,2023,1,1992,1981,1973,1,2016,2015,1995,1
0.522,1466,1719,2052,1,1989,1973,1973,1,1977,1957,1948,1,408,269,214,1,2066,2058,2046,1,2049,2036,2027,1,1994,1987,1974,1,2017,2020,1998,1
0.522,1466,1668,1915,1,1989,1973,1976,1,1977,1957,1951,1,408,262,215,1,2066,2058,2050,1,2049,2036,2032,1,1994,1987,1978,1,2017,2020,2003,1
0.523,1425,1535,1915,1,1991,1973,1976,1,1980,1958,1951,1,411,261,215,1,2070,2059,2050,1,2054,2036,2032,1,1999,1989,1978,1,2024,2024,2003,1
0.524,1381,1535,1633,1,1991,1973,1976,1,1980,1958,1951,1,410,261,215,1,2071,2059,2051,1,2055,2036,2034,1,2001,1989,1980,1,2023,2024,2006,1
0.525,1381,1277,1339,1,1991,1972,1973,1,1980,1958,1949,1,410,261,212,1,2071,2059,2050,1,2055,2037,2033,1,2001,1991,1981,1,2023,2025,2005,1
0.526,1252,1148,1114,1,1988,1969,1971,1,1977,1955,1948,1,403,259,210,1,2068,2058,2050,1,2051,2037,2033,1,1998,1991,1978,1,2020,2026,2005,1
0.527,1071,959,833,1,1983,1964,1966,1,1972,1950,1944,1,394,248,206,1,2062,2052,2045,1,2044,2030,2028,1,1991,1984,1976,1,2013,2018,2001,1
0.528,1112,930,757,1,1982,1961,1962,1,1970,1947,1940,1,398,248,204,1,2062,2050,2040,1,2046,2028,2022,1,1992,1982,1969,1,2016,2018,1995,1
0.529,1057,963,674,1,1979,1958,1959,1,1967,1943,1937,1,392,247,201,1,2058,2045,2039,1,2041,2022,2022,1,1987,1976,1969,1,2010,2010,1995,1
0.53,1078,963,734,1,1977,1958,1956,1,1966,1943,1934,1,393,247,199,1,2057,2045,2035,1,2039,2022,2018,1,1986,1976,1963,1,2007,2010,1990,1
0.531,1078,1061,841,1,1977,1957,1956,1,1966,1941,1934,1,393,245,199,1,2057,2043,2034,1,2039,2019,2017,1,1986,1972,1963,1,2007,2006,1988,1
0.532,1125,1107,841,1,1975,1957,1956,1,1964,1941,1934,1,391,246,199,1,2055,2044,2034,1,2037,2020,2017,1,1988,1973,1963,1,2010,2009,1988,1
0.533,1160,1154,985,1,1975,1956,1957,1,1964,1940,1934,1,388,240,200,1,2053,2040,2033,1,2033,2014,2015,1,1982,1967,1962,1,2005,2003,1987,1
0.534,1184,1230,1274,1,1975,1958,1960,1,1965,1942,1937,1,397,246,204,1,2055,2043,2033,1,2037,2017,2014,1,1984,1970,1963,1,2008,2006,1987,1
0.536,1291,1363,1518,1,1979,1963,1963,1,1968,1948,1939,1,399,256,206,1,2057,2050,2036,1,2038,2025,2017,1,1984,1976,1962,1,2007,2011,1988,1
0.536,1291,1660,2072,1,1979,1967,1972,1,1968,1951,1946,1,399,256,212,1,2057,2050,2044,1,2038,2025,2025,1,1984,1976,1968,1,2007,2011,1996,1
0.537,1415,1693,2072,1,1987,1969,1972,1,1976,1953,1946,1,408,258,212,1,2064,2053,2044,1,2046,2029,2025,1,1992,1981,1968,1,2016,2018,1996,1
0.538,1445,1693,2095,1,1988,1969,1976,1,1977,1953,1950,1,408,258,216,1,2066,2053,2048,1,2049,2029,2030,1,1995,1981,1974,1,2018,2018,2002,1
0.539,1445,1534,1948,1,1988,1972,1977,1,1977,1957,1951,1,408,263,217,1,2066,2057,2048,1,2049,2035,2031,1,1995,1981,1977,1,2018,2016,2003,1
0.54,1427,1445,1864,1,1989,1973,1977,1,1978,1959,1952,1,406,267,217,1,2067,2061,2051,1,2049,2040,2033,1,1995,1987,1977,1,2018,2022,2005,1
0.541,1391,1381,1693,1,1989,1973,1976,1,1977,1958,1952,1,400,258,216,1,2066,2057,2050,1,2047,2035,2033,1,1994,1984,1980,1,2017,2019,2006,1
0.542,1341,1240,1337,1,1990,1971,1972,1,1979,1957,1949,1,407,259,210,1,2069,2059,2047,1,2053,2037,2031,1,2000,1988,1978,1,2023,2023,2004,1
0.543,1174,1108,1061,1,1985,1966,1969,1,1973,1952,1947,1,403,252,210,1,2065,2054,2047,1,2050,2032,2031,1,1997,1985,1978,1,2021,2022,2004,1
0.544,1133,1108,715,1,1981,1966,1961,1,1969,1952,1940,1,399,252,202,1,2062,2054,2041,1,2047,2032,2025,1,1994,1985,1971,1,2016,2022,1997,1
0.545,1133,1026,694,1,1981,1961,1958,1,1969,1946,1937,1,399,248,200,1,2062,2048,2038,1,2047,2025,2022,1,1994,1977,1969,1,2016,2013,1993,1
0.546,1114,1068,662,1,1979,1960,1956,1,1967,1945,1935,1,396,250,198,1,2059,2048,2038,1,2043,2025,2021,1,1990,1976,1964,1,2011,2013,1991,1
0.547,1133,1088,777,1,1977,1957,1955,1,1964,1942,1934,1,391,241,198,1,2055,2043,2035,1,2037,2018,2018,1,1984,1969,1963,1,2006,2006,1988,1
0.548,1157,1160,938,1,1976,1957,1955,1,1964,1942,1934,1,397,244,199,1,2056,2045,2033,1,2040,2021,2016,1,1986,1972,1963,1,2009,2009,1987,1
0.549,1193,1212,1038,1,1975,1959,1955,1,1963,1941,1934,1,394,247,199,1,2054,2044,2034,1,2037,2019,2016,1,1983,1970,1960,1,2005,2006,1987,1
0.55,1193,1285,1303,1,1975,1958,1958,1,1963,1941,1934,1,394,247,200,1,2054,2044,2034,1,2037,2019,2015,1,1983,1970,1957,1,2005,2006,1985,1
0.551,1247,1486,1303,1,1976,1961,1958,1,1964,1944,1934,1,398,249,200,1,2054,2045,2034,1,2036,2019,2015,1,1980,1971,1957,1,2005,2008,1985,1
0.552,1370,1486,1976,1,1981,1961,1966,1,1968,1944,1940,1,402,249,209,1,2057,2045,2039,1,2039,2019,2019,1,1983,1971,1962,1,2007,2008,1990,1
0.553,1346,1666,2152,1,1984,1965,1970,1,1972,1949,1944,1,411,254,213,1,2063,2049,2042,1,2046,2024,2023,1,1990,1976,1968,1,2014,2014,1993,1
0.554,1466,1642,2297,1,1986,1968,1973,1,1974,1953,1947,1,407,261,215,1,2064,2055,2046,1,2046,2032,2027,1,1991,1984,1969,1,2015,2021,1997,1
0.555,1522,1673,2199,1,1989,1970,1975,1,1975,1954,1949,1,402,256,216,1,2064,2054,2047,1,2044,2029,2029,1,1989,1981,1973,1,2022,2018,2000,1
0.556,1442,1571,1973,1,1990,1972,1975,1,1978,1957,1950,1,411,262,217,1,2069,2058,2050,1,2051,2034,2032,1,1997,1986,1977,1,2022,2023,2004,1
0.557,1365,1458,1851,1,1991,1972,1975,1,1980,1957,1950,1,413,260,217,1,2071,2058,2050,1,2054,2034,2032,1,2001,1987,1977,1,2025,2026,2004,1
0.558,1309,1458,1532,1,1991,1972,1975,1,1979,1957,1950,1,411,260,215,1,2070,2058,2050,1,2053,2034,2034,1,2001,1987,1979,1,2023,2026,2006,1
0.559,1309,1129,1165,1,1991,1968,1970,1,1979,1954,1947,1,411,256,211,1,2070,2056,2047,1,2053,2033,2031,1,2001,1986,1978,1,2023,2023,2003,1
0.56,1173,1067,860,1,1986,1964,1966,1,1974,1950,1944,1,404,254,207,1,2066,2055,2047,1,2050,2033,2030,1,1998,1986,1974,1,2019,2023,2001,1
0.562,1086,959,757,1,1982,1960,1962,1,1969,1946,1941,1,394,245,204,1,2060,2049,2042,1,2042,2025,2025,1,1990,1978,1972,1,2013,2014,1997,1
0.562,1114,966,758,1,1980,1958,1959,1,1967,1944,1938,1,398,245,202,1,2060,2047,2037,1,2044,2024,2019,1,1991,1977,1965,1,2014,2014,1991,1
0.563,1086,1050,732,1,1977,1956,1957,1,1964,1941,1936,1,393,246,201,1,2056,2044,2037,1,2039,2021,2019,1,1985,1973,1965,1,2008,2008,1991,1
0.564,1086,1089,907,1,1977,1956,1955,1,1964,1941,1934,1,393,246,199,1,2056,2044,2035,1,2039,2021,2016,1,1985,1973,1961,1,2008,2008,1987,1
0.565,1167,1155,907,1,1975,1956,1955,1,1962,1941,1934,1,394,246,199,1,2055,2043,2035,1,2036,2019,2016,1,1982,1972,1961,1,2006,2008,1987,1
0.566,1200,1155,1110,1,1975,1956,1956,1,1962,1941,1934,1,393,246,200,1,2054,2043,2033,1,2034,2019,2014,1,1980,1972,1958,1,2003,2008,1986,1
0.567,1244,1240,1246,1,1975,1957,1957,1,1963,1941,1934,1,400,246,202,1,2056,2043,2032,1,2038,2018,2013,1,1983,1971,1959,1,2006,2008,1985,1
0.568,1311,1451,1359,1,1977,1962,1958,1,1965,1945,1935,1,399,254,202,1,2055,2048,2033,1,2036,2023,2014,1,1981,1976,1956,1,2004,2012,1985,1
0.569,1534,1769,1791,1,1981,1965,1964,1,1968,1947,1940,1,397,251,207,1,2057,2046,2035,1,2036,2020,2016,1,1988,1972,1962,1,2012,2008,1988,1
0.57,1513,1807,1959,1,1984,1968,1973,1,1973,1951,1947,1,408,258,214,1,2063,2052,2043,1,2044,2027,2024,1,1988,1979,1970,1,2012,2015,1996,1
0.571,1560,1741,2122,1,1989,1970,1973,1,1978,1954,1947,1,412,260,214,1,2067,2054,2043,1,2050,2030,2024,1,1994,1982,1970,1,2020,2020,1996,1
0.572,1540,1741,1997,1,1990,1970,1976,1,1978,1954,1951,1,411,260,217,1,2068,2054,2048,1,2052,2030,2029,1,1997,1982,1975,1,2020,2020,2001,1
0.573,1540,1527,1831,1,1990,1973,1975,1,1978,1957,1951,1,411,263,217,1,2068,2057,2048,1,2052,2033,2030,1,1997,1986,1978,1,2020,2022,2002,1
0.574,1507,1440,1731,1,1991,1973,1975,1,1979,1958,1951,1,410,265,215,1,2068,2060,2050,1,2052,2037,2032,1,1998,1990,1977,1,2020,2026,2004,1
0.575,1387,1361,1513,1,1989,1971,1974,1,1976,1957,1950,1,402,257,214,1,2065,2057,2049,1,2048,2033,2032,1,1994,1986,1979,1,2017,2021,2004,1
0.576,1387,1224,1177,1,1989,1968,1969,1,1976,1954,1946,1,408,256,210,1,2067,2057,2044,1,2051,2034,2028,1,1997,1987,1974,1,2021,2023,1999,1
0.577,1267,1224,903,1,1982,1968,1965,1,1969,1954,1943,1,402,256,206,1,2061,2057,2044,1,2047,2034,2028,1,1992,1987,1974,1,2017,2023,1999,1
0.578,1267,1092,814,1,1982,1961,1961,1,1969,1946,1939,1,402,247,203,1,2061,2049,2041,1,2047,2025,2025,1,1992,1978,1971,1,2017,2013,1995,1
0.579,1236,1122,814,1,1977,1959,1961,1,1965,1944,1939,1,396,246,203,1,2057,2047,2041,1,2041,2023,2025,1,1986,1976,1971,1,2011,2012,1995,1
0.58,1261,1122,889,1,1976,1959,1957,1,1964,1944,1934,1,394,246,200,1,2055,2047,2036,1,2037,2023,2018,1,1982,1976,1964,1,2006,2012,1989,1
0.581,1301,1227,1036,1,1976,1958,1957,1,1964,1942,1934,1,399,246,201,1,2056,2046,2033,1,2039,2022,2015,1,1984,1975,1962,1,2009,2012,1987,1
0.582,1342,1317,1121,1,1975,1958,1956,1,1962,1942,1933,1,395,251,200,1,2053,2048,2034,1,2036,2025,2015,1,1981,1978,1959,1,2005,2013,1986,1
0.583,1415,1402,1264,1,1975,1957,1956,1,1961,1941,1933,1,387,245,201,1,2053,2043,2033,1,2034,2018,2014,1,1978,1970,1959,1,2003,2005,1984,1
0.584,1444,1589,1537,1,1975,1958,1959,1,1962,1941,1934,1,395,244,203,1,2053,2041,2034,1,2034,2014,2014,1,1978,1965,1960,1,2003,2001,1984,1
0.585,1579,1885,1537,1,1980,1964,1959,1,1967,1946,1934,1,404,250,203,1,2058,2044,2034,1,2038,2018,2014,1,1981,1970,1960,1,2007,2007,1984,1
0.586,1714,1885,2318,1,1984,1964,1970,1,1971,1946,1944,1,406,250,212,1,2061,2044,2041,1,2041,2018,2021,1,1985,1970,1966,1,2009,2007,1992,1
0.587,1668,1980,2398,1,1986,1968,1973,1,1975,1950,1947,1,415,255,215,1,2066,2049,2043,1,2048,2023,2024,1,1992,1976,1971,1,2017,2014,1995,1
0.588,1740,1921,2479,1,1989,1971,1976,1,1977,1953,1949,1,413,261,215,1,2066,2055,2046,1,2049,2031,2027,1,1994,1984,1971,1,2017,2021,1998,1
0.589,1786,1910,2340,1,1990,1972,1977,1,1977,1954,1950,1,406,256,216,1,2065,2054,2046,1,2046,2029,2028,1,1997,1982,1975,1,2021,2017,2001,1
0.59,1731,1834,2151,1,1991,1973,1976,1,1979,1956,1951,1,413,261,216,1,2068,2058,2049,1,2051,2034,2031,1,1997,1987,1978,1,2021,2022,2003,1
0.591,1677,1834,2043,1,1992,1973,1976,1,1979,1956,1951,1,413,261,216,1,2070,2058,2049,1,2054,2034,2031,1,2000,1987,1978,1,2024,2022,2003,1
0.592,1677,1580,1719,1,1992,1971,1973,1,1979,1955,1949,1,413,256,213,1,2070,2056,2048,1,2054,2034,2031,1,2000,1986,1978,1,2024,2021,2002,1
0.593,1517,1437,1719,1,1987,1967,1973,1,1973,1951,1949,1,404,253,213,1,2066,2054,2048,1,2050,2032,2031,1,1996,1985,1978,1,2020,2022,2002,1
0.594,1413,1249,1342,1,1983,1963,1967,1,1969,1947,1944,1,397,245,208,1,2061,2048,2043,1,2044,2025,2027,1,1990,1978,1975,1,2014,2014,1998,1
0.595,1447,1238,1187,1,1982,1960,1963,1,1968,1945,1941,1,401,246,206,1,2061,2048,2038,1,2045,2024,2022,1,1991,1978,1972,1,2015,2014,1994,1
0.596,1359,1318,1042,1,1978,1959,1959,1,1963,1944,1938,1,391,251,203,1,2056,2050,2038,1,2038,2027,2021,1,1984,1972,1966,1,2009,2006,1991,1
0.597,1352,1334,1094,1,1975,1957,1957,1,1961,1941,1936,1,389,243,202,1,2052,2044,2035,1,2034,2020,2018,1,1980,1972,1965,1,2006,2006,1988,1
0.598,1405,1484,1224,1,1975,1957,1957,1,1961,1939,1935,1,389,242,201,1,2052,2041,2034,1,2034,2017,2016,1,1980,1967,1963,1,2006,2002,1985,1
0.599,1487,1553,1224,1,1975,1957,1957,1,1961,1939,1935,1,392,243,201,1,2052,2041,2034,1,2034,2017,2016,1,1978,1968,1963,1,2004,2004,1985,1
0.6,1540,1553,1509,1,1976,1957,1958,1,1962,1939,1935,1,392,243,203,1,2051,2041,2032,1,2031,2017,2013,1,1975,1968,1959,1,2001,2004,1983,1
0.601,1570,1681,1832,1,1977,1959,1961,1,1963,1942,1937,1,400,250,206,1,2053,2044,2032,1,2035,2019,2013,1,1979,1970,1960,1,2005,2006,1984,1
0.602,1698,1876,2094,1,1980,1965,1964,1,1966,1947,1939,1,400,259,208,1,2055,2051,2035,1,2036,2027,2016,1,1980,1979,1959,1,2005,2013,1986,1
0.603,1923,2166,2385,1,1984,1969,1969,1,1969,1950,1943,1,396,256,213,1,2062,2050,2039,1,2044,2024,2020,1,1988,1976,1965,1,2014,2010,1989,1
0.604,1862,2173,2385,1,1987,1973,1969,1,1974,1954,1943,1,407,257,213,1,2062,2053,2039,1,2044,2027,2020,1,1988,1979,1965,1,2014,2014,1989,1
0.606,1861,2173,2454,1,1989,1973,1975,1,1977,1954,1948,1,410,257,216,1,2065,2053,2045,1,2048,2027,2027,1,1993,1979,1971,1,2016,2014,1998,1
0.678,1861,1969,2314,1,1989,1975,1976,1,1977,1957,1949,1,410,260,216,1,2065,2057,2046,1,2048,2032,2030,1,1993,1984,1975,1,2016,2018,2000,1
0.686,1828,1864,2314,1,1991,1975,1976,1,1978,1958,1949,1,407,262,216,1,2068,2059,2046,1,2051,2035,2030,1,1996,1987,1975,1,2021,2022,2000,1
0.686,1776,1783,2122,1,1991,1974,1976,1,1978,1957,1949,1,404,255,215,1,2067,2056,2047,1,2049,2031,2031,1,1995,1983,1977,1,2019,2018,2001,1
0.706,1773,1633,1718,1,1991,1972,1972,1,1979,1956,1947,1,410,258,212,1,2070,2059,2044,1,2054,2036,2029,1,2000,1988,1978,1,2024,2023,2001,1
0.726,1645,1547,1410,1,1987,1969,1969,1,1974,1953,1945,1,403,260,209,1,2066,2059,2044,1,2050,2028,2029,1,1997,1981,1975,1,2019,2015,2000,1
0.727,1486,1359,1162,1,1980,1964,1964,1,1966,1948,1941,1,392,249,205,1,2059,2052,2040,1,2043,2028,2025,1,1989,1981,1973,1,2013,2015,1997,1
0.727,1486,1319,1081,1,1980,1958,1961,1,1966,1943,1938,1,392,244,202,1,2059,2045,2037,1,2043,2022,2021,1,1989,1974,1970,1,2013,2007,1992,1
0.727,1512,1389,1081,1,1976,1957,1961,1,1962,1942,1938,1,391,244,202,1,2055,2044,2037,1,2039,2020,2021,1,1983,1973,1970,1,2008,2007,1992,1
0.727,1538,1389,1225,1,1975,1957,1957,1,1962,1942,1934,1,391,244,200,1,2053,2044,2034,1,2035,2020,2016,1,1980,1973,1961,1,2004,2007,1987,1
0.728,1617,1501,1366,1,1976,1957,1957,1,1963,1941,1933,1,399,245,200,1,2055,2043,2032,1,2038,2019,2014,1,1982,1973,1961,1,2007,2008,1985,1
0.728,1662,1596,1452,1,1976,1958,1957,1,1962,1942,1933,1,395,251,200,1,2053,2046,2033,1,2034,2023,2014,1,1979,1976,1958,1,2003,2010,1985,1
0.728,1726,1688,1605,1,1975,1958,1958,1,1960,1941,1934,1,396,245,202,1,2052,2041,2032,1,2034,2017,2013,1,1977,1969,1958,1,2002,2003,1983,1
0.728,1770,2136,1605,1,1977,1964,1958,1,1963,1945,1934,1,396,249,202,1,2052,2042,2032,1,2034,2016,2013,1,1977,1968,1958,1,2002,2002,1983,1
0.728,1907,2136,2434,1,1982,1964,1969,1,1968,1945,1941,1,402,249,210,1,2056,2042,2038,1,2038,2016,2018,1,1983,1968,1961,1,2005,2002,1988,1
0.728,1907,2392,2643,1,1982,1972,1973,1,1968,1952,1945,1,402,258,213,1,2056,2050,2041,1,2038,2025,2022,1,1983,1975,1967,1,2005,2009,1991,1
0.728,2104,2329,2643,1,1988,1973,1973,1,1974,1954,1945,1,407,262,213,1,2063,2055,2041,1,2045,2031,2022,1,1995,1981,1967,1,2019,2016,1991,1
0.728,2136,2324,2613,1,1991,1974,1976,1,1976,1955,1948,1,404,257,215,1,2063,2053,2044,1,2044,2028,2025,1,1993,1979,1972,1,2018,2013,1994,1
0.728,2069,2222,2461,1,1993,1975,1976,1,1979,1957,1949,1,412,261,216,1,2067,2057,2044,1,2050,2033,2026,1,1998,1984,1976,1,2023,2019,1998,1
0.729,2061,2115,2377,1,1993,1976,1977,1,1979,1960,1950,1,409,270,216,1,2067,2058,2047,1,2050,2034,2029,1,1997,1987,1975,1,2022,2021,2000,1
0.729,2018,2036,2104,1,1992,1975,1976,1,1978,1958,1949,1,409,261,213,1,2067,2058,2049,1,2050,2034,2031,1,1998,1987,1976,1,2021,2021,2003,1
0.729,2018,1624,1703,1,1992,1969,1971,1,1978,1952,1946,1,409,253,209,1,2067,2055,2046,1,2050,2031,2029,1,1998,1984,1975,1,2021,2018,2000,1
0.729,1810,1553,1703,1,1985,1964,1971,1,1970,1948,1946,1,399,251,209,1,2061,2052,2046,1,2045,2029,2029,1,1991,1983,1975,1,2016,2018,2000,1
0.731,1755,1437,1457,1,1982,1961,1965,1,1966,1944,1941,1,393,242,204,1,2057,2046,2041,1,2040,2021,2025,1,1987,1974,1972,1,2011,2009,1995,1
0.731,1797,1524,1427,1,1981,1960,1962,1,1965,1943,1938,1,399,245,202,1,2057,2047,2036,1,2042,2022,2020,1,1988,1975,1969,1,2012,2010,1992,1
0.732,1757,1648,1372,1,1978,1960,1959,1,1962,1943,1935,1,392,252,200,1,2053,2049,2036,1,2035,2025,2019,1,1981,1969,1964,1,2005,2004,1989,1
0.732,1788,1729,1496,1,1977,1959,1958,1,1960,1940,1934,1,391,244,200,1,2052,2043,2033,1,2033,2018,2016,1,1978,1969,1963,1,2003,2004,1986,1
0.733,1854,1928,1496,1,1977,1958,1958,1,1960,1939,1934,1,391,243,200,1,2052,2041,2033,1,2033,2015,2016,1,1978,1965,1963,1,2003,2000,1986,1
0.733,1902,1928,1787,1,1977,1958,1958,1,1960,1939,1934,1,392,243,201,1,2052,2041,2032,1,2033,2015,2013,1,1978,1965,1958,1,2002,2000,1983,1
0.733,1902,2099,1974,1,1977,1959,1959,1,1960,1940,1934,1,392,247,202,1,2052,2041,2032,1,2033,2015,2012,1,1978,1965,1958,1,2002,1999,1982,1
0.733,1992,2316,2132,1,1979,1964,1960,1,1963,1945,1934,1,395,254,202,1,2053,2046,2034,1,2033,2020,2014,1,1978,1971,1956,1,2000,2005,1983,1
0.733,2205,2601,2545,1,1983,1968,1966,1,1967,1947,1939,1,395,251,207,1,2055,2045,2037,1,2034,2017,2017,1,1979,1968,1961,1,2002,2002,1986,1
0.734,2176,2614,2707,1,1987,1972,1971,1,1972,1951,1943,1,406,257,212,1,2061,2051,2039,1,2042,2024,2020,1,1987,1976,1968,1,2011,2011,1995,1
0.734,2264,2521,2855,1,1989,1975,1975,1,1974,1956,1946,1,404,262,214,1,2062,2055,2044,1,2043,2030,2024,1,1989,1982,1968,1,2013,2017,1995,1
0.734,2245,2496,2746,1,1991,1975,1979,1,1976,1956,1949,1,407,262,216,1,2065,2055,2047,1,2046,2030,2029,1,1993,1982,1972,1,2016,2017,2000,1
0.734,2245,2331,2603,1,1991,1976,1979,1,1976,1957,1950,1,407,260,216,1,2065,2057,2048,1,2046,2034,2030,1,1993,1985,1975,1,2016,2019,2001,1
0.734,2202,2261,2603,1,1992,1976,1979,1,1977,1958,1950,1,405,262,216,1,2067,2059,2048,1,2050,2036,2030,1,1997,1988,1975,1,2021,2023,2001,1
0.734,2128,2183,2338,1,1990,1975,1977,1,1975,1956,1949,1,400,254,213,1,2065,2055,2047,1,2047,2031,2030,1,1994,1983,1977,1,2018,2019,2001,1
0.734,2125,1981,1914,1,1989,1971,1971,1,1974,1953,1945,1,405,253,209,1,2066,2055,2043,1,2050,2031,2026,1,1997,1984,1976,1,2022,2021,1999,1
0.734,2007,1938,1588,1,1985,1968,1967,1,1970,1951,1942,1,399,257,205,1,2062,2048,2042,1,2046,2024,2024,1,1993,1977,1971,1,2016,2012,1997,1
0.735,2007,1772,1333,1,1985,1963,1960,1,1970,1946,1937,1,399,247,200,1,2062,2048,2038,1,2046,2024,2019,1,1993,1977,1963,1,2016,2012,1991,1
0.735,2010,1788,1333,1,1981,1961,1960,1,1965,1944,1937,1,396,245,200,1,2056,2045,2038,1,2040,2020,2019,1,1986,1973,1963,1,2010,2010,1991,1
0.735,2017,1788,1433,1,1979,1961,1957,1,1963,1944,1934,1,395,245,198,1,2054,2045,2034,1,2037,2020,2015,1,1983,1973,1959,1,2006,2010,1986,1
0.735,2017,1981,1597,1,1979,1960,1957,1,1963,1941,1933,1,395,246,199,1,2054,2042,2032,1,2037,2017,2014,1,1983,1968,1959,1,2006,2004,1984,1
0.735,2069,2074,1696,1,1979,1960,1957,1,1962,1941,1932,1,391,249,198,1,2051,2043,2032,1,2033,2019,2014,1,1979,1970,1956,1,2003,2006,1984,1
0.735,2128,2147,1878,1,1979,1959,1958,1,1961,1939,1933,1,387,242,199,1,2049,2039,2030,1,2029,2013,2012,1,1974,1964,1957,1,1999,2000,1983,1
0.735,2202,2235,2171,1,1980,1961,1961,1,1963,1940,1935,1,395,246,202,1,2051,2040,2029,1,2033,2014,2013,1,1978,1965,1957,1,2003,2002,1984,1
0.735,2321,2619,2418,1,1982,1970,1964,1,1966,1949,1937,1,396,258,204,1,2052,2047,2032,1,2033,2021,2013,1,1977,1972,1957,1,2002,2008,1984,1
0.736,2418,2619,3007,1,1986,1970,1974,1,1971,1949,1944,1,403,258,212,1,2058,2047,2040,1,2038,2021,2020,1,1983,1972,1964,1,2005,2008,1991,1
0.736,2418,2696,3041,1,1986,1975,1977,1,1971,1954,1947,1,403,261,214,1,2058,2052,2043,1,2038,2027,2024,1,1983,1979,1969,1,2005,2014,1994,1
0.736,2529,2615,3041,1,1991,1977,1977,1,1975,1957,1947,1,404,264,214,1,2064,2055,2043,1,2046,2031,2024,1,1997,1984,1969,1,2019,2020,1994,1
0.737,2499,2568,2905,1,1992,1977,1978,1,1976,1956,1949,1,402,257,215,1,2064,2053,2044,1,2045,2028,2026,1,1995,1981,1973,1,2017,2016,1997,1
0.737,2481,2479,2723,1,1994,1977,1978,1,1979,1957,1950,1,411,261,216,1,2068,2057,2044,1,2051,2034,2027,1,1999,1986,1976,1,2022,2021,2000,1
0.737,2436,2391,2611,1,1994,1977,1978,1,1979,1958,1950,1,408,259,215,1,2068,2057,2047,1,2050,2034,2030,1,1998,1987,1975,1,2020,2021,2002,1
0.737,2436,2245,2063,1,1994,1975,1973,1,1979,1956,1945,1,408,259,209,1,2068,2057,2046,1,2050,2034,2029,1,1998,1987,1973,1,2020,2021,2001,1
0.737,2301,2028,2063,1,1989,1969,1973,1,1973,1951,1945,1,402,253,209,1,2064,2053,2046,1,2047,2030,2029,1,1995,1984,1973,1,2018,2020,2001,1
0.737,2220,2028,1516,1,1986,1969,1964,1,1969,1951,1938,1,397,253,203,1,2060,2053,2040,1,2043,2030,2023,1,1991,1984,1967,1,2013,2020,1995,1
0.737,2220,1938,1482,1,1986,1963,1961,1,1969,1945,1936,1,397,249,200,1,2060,2047,2037,1,2043,2023,2020,1,1991,1971,1965,1,2013,2006,1992,1
0.737,2184,1999,1430,1,1983,1962,1959,1,1966,1944,1934,1,394,252,199,1,2057,2048,2036,1,2039,2024,2019,1,1987,1973,1961,1,2008,2007,1990,1
0.738,2167,2018,1568,1,1980,1960,1958,1,1963,1941,1933,1,387,242,198,1,2053,2042,2033,1,2033,2016,2016,1,1979,1966,1961,1,2002,2001,1987,1
0.738,2226,2124,1791,1,1980,1960,1958,1,1963,1941,1933,1,394,244,200,1,2054,2043,2032,1,2036,2017,2013,1,1981,1968,1958,1,2005,2004,1985,1
0.738,2297,2244,1918,1,1979,1960,1959,1,1963,1940,1933,1,397,243,200,1,2053,2041,2032,1,2035,2015,2013,1,1979,1967,1958,1,2005,2005,1985,1
0.738,2358,2244,2260,1,1979,1960,1961,1,1963,1940,1934,1,397,243,202,1,2052,2041,2031,1,2034,2015,2012,1,1979,1967,1955,1,2002,2005,1983,1
0.738,2358,2580,2659,1,1979,1963,1965,1,1963,1943,1937,1,397,249,205,1,2052,2043,2033,1,2034,2016,2014,1,1979,1967,1958,1,2002,2003,1984,1
0.738,2492,2706,2970,1,1984,1969,1969,1,1968,1949,1940,1,402,257,208,1,2055,2049,2037,1,2037,2022,2017,1,1982,1973,1958,1,2004,2009,1986,1
0.738,2655,2895,3180,1,1987,1972,1974,1,1971,1950,1944,1,400,253,212,1,2057,2048,2039,1,2038,2021,2020,1,1983,1971,1964,1,2007,2007,1990,1
0.739,2601,2853,3157,1,1990,1975,1977,1,1975,1953,1947,1,410,259,215,1,2063,2053,2040,1,2046,2028,2023,1,1990,1979,1971,1,2015,2015,1998,1
0.739,2648,2727,3187,1,1993,1977,1979,1,1976,1957,1949,1,408,263,216,1,2064,2057,2045,1,2046,2032,2027,1,1991,1983,1971,1,2015,2018,1998,1
0.739,2648,2661,2938,1,1993,1977,1980,1,1976,1957,1950,1,408,263,216,1,2064,2057,2048,1,2046,2032,2031,1,1991,1983,1974,1,2015,2018,2002,1
0.739,2540,2576,2938,1,1994,1977,1980,1,1978,1957,1950,1,410,261,216,1,2068,2057,2048,1,2051,2033,2031,1,1996,1985,1974,1,2020,2022,2002,1
0.739,2492,2576,2668,1,1994,1977,1979,1,1978,1957,1950,1,407,261,215,1,2068,2057,2049,1,2050,2033,2032,1,1996,1985,1976,1,2019,2022,2004,1
0.739,2444,2351,2285,1,1994,1974,1974,1,1978,1954,1947,1,412,258,211,1,2069,2056,2046,1,2053,2033,2029,1,2000,1986,1976,1,2024,2024,2001,1
0.739,2311,2192,1994,1,1990,1970,1971,1,1973,1951,1944,1,404,257,208,1,2064,2055,2046,1,2048,2033,2028,1,1996,1986,1972,1,2019,2023,2000,1
0.74,2149,1948,1749,1,1986,1965,1966,1,1969,1946,1941,1,393,247,205,1,2058,2048,2040,1,2039,2025,2023,1,1988,1977,1970,1,2013,2014,1996,1
0.74,2182,1977,1727,1,1984,1963,1960,1,1967,1944,1935,1,397,249,201,1,2058,2048,2035,1,2041,2025,2017,1,1988,1977,1962,1,2013,2014,1989,1
0.74,2181,2063,1660,1,1980,1962,1960,1,1963,1942,1935,1,396,247,201,1,2054,2045,2035,1,2038,2021,2017,1,1984,1973,1962,1,2009,2012,1989,1
0.74,2212,2063,1854,1,1979,1962,1958,1,1963,1942,1933,1,396,247,199,1,2053,2045,2032,1,2035,2021,2014,1,1981,1973,1958,1,2005,2012,1986,1
0.74,2212,2276,2015,1,1979,1961,1958,1,1963,1941,1933,1,396,248,200,1,2053,2042,2032,1,2035,2018,2013,1,1981,1970,1958,1,2005,2005,1984,1
0.74,2253,2366,2115,1,1979,1962,1958,1,1963,1941,1933,1,396,250,200,1,2052,2043,2033,1,2033,2019,2013,1,1979,1971,1955,1,2002,2007,1983,1
0.74,2352,2451,2294,1,1980,1962,1960,1,1963,1940,1934,1,392,243,202,1,2050,2039,2032,1,2028,2013,2012,1,1974,1965,1955,1,1998,2000,1981,1
0.741,2359,2654,2742,1,1981,1965,1966,1,1965,1943,1938,1,400,249,207,1,2053,2042,2037,1,2033,2016,2017,1,1978,1968,1960,1,2003,2004,1987,1
0.741,2551,2872,3084,1,1985,1974,1971,1,1969,1952,1941,1,400,260,210,1,2056,2050,2037,1,2035,2025,2017,1,1979,1976,1960,1,2004,2011,1987,1
0.741,2551,2872,3388,1,1985,1974,1978,1,1969,1952,1947,1,400,260,214,1,2056,2050,2043,1,2035,2025,2024,1,1979,1976,1967,1,2004,2011,1995,1
0.741,2657,2818,3388,1,1991,1976,1978,1,1976,1954,1947,1,408,261,214,1,2063,2053,2043,1,2043,2028,2024,1,1987,1980,1967,1,2014,2017,1995,1
0.742,2638,2818,3200,1,1993,1976,1981,1,1977,1954,1950,1,407,261,216,1,2064,2053,2046,1,2045,2028,2028,1,1990,1980,1972,1,2015,2017,2000,1
0.742,2610,2696,3002,1,1995,1977,1981,1,1979,1956,1950,1,414,262,216,1,2068,2056,2046,1,2051,2031,2029,1,1996,1984,1975,1,2022,2021,2001,1
0.742,2577,2602,2886,1,1995,1977,1981,1,1978,1957,1950,1,408,266,216,1,2067,2061,2048,1,2048,2038,2031,1,1994,1990,1974,1,2020,2025,2002,1
0.742,2480,2513,2694,1,1993,1977,1979,1,1975,1956,1950,1,397,258,215,1,2064,2057,2048,1,2048,2033,2031,1,1995,1985,1977,1,2020,2020,2002,1
0.742,2472,2309,1921,1,1993,1974,1969,1,1976,1954,1943,1,404,258,208,1,2066,2057,2042,1,2048,2034,2026,1,1995,1987,1972,1,2020,2023,1998,1
0.742,2325,2105,1921,1,1987,1968,1969,1,1969,1949,1943,1,399,252,208,1,2061,2052,2042,1,2043,2029,2026,1,1990,1983,1972,1,2015,2020,1998,1
0.743,2253,2105,1558,1,1984,1968,1962,1,1966,1949,1937,1,396,252,203,1,2058,2052,2037,1,2040,2029,2019,1,1987,1983,1965,1,2010,2020,1992,1
0.743,2253,2084,1588,1,1984,1963,1960,1,1966,1944,1935,1,396,249,201,1,2058,2046,2034,1,2040,2022,2016,1,1987,1968,1963,1,2010,2005,1988,1
0.743,2250,2168,1585,1,1981,1962,1958,1,1964,1942,1934,1,393,251,200,1,2055,2047,2034,1,2037,2024,2016,1,1984,1971,1959,1,2006,2007,1987,1
0.743,2252,2211,1753,1,1979,1960,1958,1,1962,1940,1934,1,386,244,200,1,2051,2042,2032,1,2030,2017,2014,1,1977,1965,1959,1,2004,2000,1985,1
0.743,2338,2294,1963,1,1979,1960,1959,1,1962,1940,1933,1,394,247,201,1,2053,2043,2031,1,2034,2018,2012,1,1980,1967,1957,1,2004,2003,1983,1
0.743,2436,2294,2091,1,1979,1960,1959,1,1962,1940,1933,1,398,247,201,1,2052,2043,2031,1,2033,2018,2012,1,1979,1967,1957,1,2003,2003,1983,1
0.744,2436,2494,2346,1,1979,1961,1961,1,1962,1941,1934,1,398,247,203,1,2052,2041,2032,1,2033,2015,2012,1,1979,1965,1957,1,2003,1999,1982,1
0.744,2585,2695,2346,1,1983,1965,1961,1,1966,1945,1934,1,402,252,203,1,2055,2045,2032,1,2035,2019,2012,1,1980,1970,1957,1,2005,2005,1982,1
0.744,2717,2937,2778,1,1987,1968,1968,1,1969,1947,1939,1,402,249,208,1,2058,2044,2037,1,2037,2017,2017,1,1983,1968,1962,1,2007,2002,1986,1
0.744,2687,2964,2978,1,1990,1973,1973,1,1973,1952,1944,1,412,258,213,1,2063,2050,2040,1,2045,2025,2020,1,1990,1976,1968,1,2014,2011,1991,1
0.744,2746,2866,3143,1,1993,1976,1976,1,1976,1956,1947,1,412,267,215,1,2064,2057,2044,1,2046,2034,2025,1,1992,1985,1969,1,2015,2016,1995,1
0.744,2765,2836,3079,1,1994,1976,1978,1,1978,1956,1949,1,409,261,216,1,2067,2054,2045,1,2049,2031,2027,1,1996,1982,1973,1,2020,2016,1998,1
0.745,2722,2668,2941,1,1995,1977,1978,1,1978,1956,1950,1,409,259,216,1,2067,2055,2047,1,2049,2032,2029,1,1996,1984,1976,1,2020,2018,1999,1
0.745,2644,2587,2941,1,1996,1976,1978,1,1979,1956,1950,1,410,258,216,1,2069,2056,2047,1,2051,2034,2029,1,1998,1987,1976,1,2023,2022,1999,1
0.745,2564,2587,2470,1,1993,1976,1975,1,1976,1956,1948,1,405,258,212,1,2067,2056,2046,1,2049,2034,2029,1,1996,1987,1976,1,2020,2022,2001,1
0.745,2538,2332,2087,1,1992,1971,1969,1,1975,1953,1944,1,409,256,208,1,2067,2054,2042,1,2051,2032,2025,1,1998,1985,1974,1,2022,2022,1998,1
0.745,2403,2236,1796,1,1988,1968,1965,1,1971,1950,1940,1,402,258,204,1,2062,2054,2041,1,2045,2033,2024,1,1992,1985,1969,1,2016,2020,1995,1
0.745,2259,2078,1695,1,1983,1964,1962,1,1965,1945,1937,1,389,247,201,1,2056,2047,2038,1,2039,2024,2021,1,1985,1976,1967,1,2010,2011,1992,1
0.745,2323,2127,1804,1,1982,1962,1958,1,1965,1943,1934,1,395,248,201,1,2056,2047,2034,1,2039,2024,2016,1,1985,1976,1961,1,2010,2012,1987,1
0.745,2356,2127,1804,1,1980,1962,1958,1,1963,1943,1934,1,395,248,201,1,2053,2047,2034,1,2036,2024,2016,1,1981,1976,1961,1,2006,2012,1987,1
0.746,2356,2329,1970,1,1980,1960,1958,1,1963,1941,1933,1,395,247,201,1,2053,2043,2033,1,2036,2019,2014,1,1981,1970,1960,1,2006,2004,1985,1
0.746,2398,2421,1970,1,1978,1961,1958,1,1961,1941,1933,1,393,249,201,1,2052,2043,2033,1,2034,2019,2014,1,1978,1970,1960,1,2003,2005,1985,1
0.746,2459,2498,2184,1,1978,1960,1959,1,1961,1939,1933,1,392,241,202,1,2051,2038,2032,1,2031,2013,2013,1,1975,1964,1960,1,1999,1999,1983,1
0.746,2455,2592,2543,1,1979,1962,1962,1,1963,1940,1935,1,400,245,205,1,2053,2040,2031,1,2034,2015,2013,1,1978,1967,1961,1,2003,2002,1983,1
0.746,2580,2704,2835,1,1982,1968,1965,1,1966,1946,1937,1,402,257,207,1,2055,2048,2034,1,2036,2022,2015,1,1980,1974,1959,1,2003,2008,1984,1
0.746,2841,2919,3123,1,1990,1971,1971,1,1973,1948,1941,1,406,254,211,1,2062,2047,2037,1,2043,2022,2018,1,1988,1974,1964,1,2012,2008,1988,1
0.746,2767,2962,3197,1,1990,1976,1975,1,1973,1953,1944,1,406,258,213,1,2062,2052,2041,1,2043,2027,2022,1,1988,1979,1969,1,2012,2013,1992,1
0.746,2735,2873,3197,1,1994,1978,1975,1,1977,1955,1944,1,410,260,213,1,2066,2054,2041,1,2048,2030,2022,1,1993,1982,1969,1,2018,2018,1992,1
0.747,2701,2873,3017,1,1995,1978,1978,1,1977,1955,1948,1,408,260,216,1,2066,2054,2046,1,2048,2030,2028,1,1994,1982,1974,1,2018,2018,1999,1
0.747,2621,2750,2867,1,1995,1978,1978,1,1979,1956,1949,1,415,263,217,1,2069,2058,2046,1,2053,2035,2029,1,1999,1987,1977,1,2024,2023,2000,1
0.747,2577,2615,2774,1,1995,1977,1978,1,1978,1956,1950,1,407,266,216,1,2067,2061,2048,1,2050,2040,2031,1,1996,1992,1976,1,2021,2027,2002,1
0.747,2401,2430,2452,1,1991,1974,1975,1,1974,1954,1947,1,395,257,213,1,2063,2056,2046,1,2047,2034,2030,1,1993,1986,1977,1,2018,2021,2001,1
0.747,2386,1973,2452,1,1990,1966,1975,1,1973,1947,1947,1,400,247,213,1,2063,2049,2046,1,2047,2025,2030,1,1993,1978,1977,1,2018,2013,2001,1
0.747,2296,1973,1743,1,1986,1966,1965,1,1969,1947,1939,1,397,247,204,1,2060,2049,2040,1,2044,2025,2024,1,1991,1978,1969,1,2014,2013,1994,1
0.747,2296,1945,1658,1,1986,1960,1962,1,1969,1942,1937,1,397,244,201,1,2060,2045,2037,1,2044,2020,2020,1,1991,1973,1967,1,2014,2007,1990,1
0.748,2202,2030,1658,1,1980,1960,1962,1,1964,1942,1937,1,391,246,201,1,2055,2045,2037,1,2038,2020,2020,1,1983,1973,1967,1,2008,2007,1990,1
0.748,2203,2067,1751,1,1978,1958,1960,1,1961,1939,1935,1,387,238,200,1,2052,2039,2034,1,2034,2014,2017,1,1979,1966,1965,1,2004,2000,1987,1
0.748,2276,2166,1920,1,1978,1958,1960,1,1962,1939,1934,1,395,242,201,1,2053,2040,2031,1,2037,2016,2014,1,1981,1968,1964,1,2007,2003,1986,1
0.748,2297,2272,2021,1,1978,1961,1960,1,1962,1942,1934,1,394,251,201,1,2052,2040,2032,1,2034,2014,2014,1,1978,1965,1959,1,2003,2000,1984,1
0.748,2403,2360,2199,1,1979,1960,1961,1,1962,1940,1934,1,392,245,202,1,2052,2040,2031,1,2032,2014,2012,1,1975,1965,1959,1,2001,2000,1982,1
0.748,2403,2750,2665,1,1979,1965,1966,1,1962,1943,1938,1,392,248,206,1,2052,2042,2034,1,2032,2015,2014,1,1975,1966,1961,1,2001,2001,1983,1
0.748,2640,2854,2665,1,1986,1970,1966,1,1970,1948,1938,1,401,255,206,1,2058,2047,2034,1,2039,2021,2014,1,1982,1972,1961,1,2008,2008,1983,1
0.748,2714,2854,3172,1,1989,1970,1975,1,1973,1948,1945,1,403,255,213,1,2061,2047,2041,1,2041,2021,2022,1,1985,1972,1966,1,2010,2008,1992,1
0.748,2684,2817,3135,1,1992,1973,1977,1,1977,1952,1947,1,413,260,216,1,2066,2052,2042,1,2048,2026,2024,1,1992,1978,1971,1,2017,2015,1995,1
0.749,2695,2729,3150,1,1994,1976,1979,1,1978,1956,1949,1,411,268,217,1,2066,2058,2046,1,2048,2034,2028,1,1992,1986,1971,1,2016,2018,1998,1
0.749,2665,2662,2995,1,1994,1976,1979,1,1978,1956,1950,1,409,261,217,1,2068,2055,2046,1,2051,2031,2029,1,1996,1983,1975,1,2021,2018,2000,1
0.749,2619,2516,2995,1,1995,1976,1979,1,1978,1956,1950,1,409,257,217,1,2068,2056,2046,1,2051,2032,2029,1,1996,1984,1975,1,2021,2019,2000,1
0.749,2588,2516,2681,1,1995,1976,1979,1,1978,1956,1950,1,408,257,215,1,2068,2056,2048,1,2051,2032,2031,1,1997,1984,1977,1,2021,2019,2002,1
0.749,2588,2163,2272,1,1995,1972,1974,1,1978,1954,1946,1,408,254,211,1,2068,2054,2045,1,2051,2031,2029,1,1997,1983,1977,1,2021,2018,1999,1
0.749,2353,2044,2272,1,1987,1969,1974,1,1970,1950,1946,1,397,252,211,1,2062,2052,2045,1,2046,2030,2029,1,1997,1982,1977,1,2021,2018,1999,1
0.749,2238,1855,1951,1,1984,1964,1968,1,1967,1945,1942,1,391,243,207,1,2057,2046,2041,1,2040,2022,2025,1,1989,1975,1973,1,2013,2010,1994,1
0.749,2322,1935,1883,1,1983,1962,1964,1,1967,1943,1939,1,397,245,205,1,2057,2046,2036,1,2042,2023,2020,1,1989,1976,1970,1,2014,2011,1988,1
0.749,2304,2075,1794,1,1980,1962,1961,1,1964,1941,1936,1,392,245,202,1,2054,2043,2035,1,2037,2019,2018,1,1984,1970,1964,1,2008,2005,1988,1
0.749,2367,2147,1959,1,1979,1960,1960,1,1963,1941,1934,1,394,245,200,1,2054,2043,2033,1,2036,2019,2015,1,1983,1970,1958,1,2005,2005,1985,1
0.75,2367,2346,2109,1,1979,1960,1960,1,1963,1940,1933,1,394,245,200,1,2054,2041,2033,1,2036,2016,2014,1,1983,1966,1958,1,2005,2002,1983,1
0.75,2462,2440,2109,1,1979,1961,1960,1,1962,1941,1933,1,393,248,200,1,2052,2042,2033,1,2033,2016,2014,1,1979,1967,1958,1,2003,2004,1983,1
0.751,2536,2532,2320,1,1980,1961,1962,1,1963,1940,1934,1,393,242,202,1,2051,2038,2033,1,2031,2011,2013,1,1976,1961,1957,1,2000,1998,1981,1
0.752,2554,2731,2776,1,1982,1965,1968,1,1965,1943,1938,1,402,248,207,1,2054,2042,2034,1,2036,2016,2015,1,1980,1967,1961,1,2005,2004,1985,1
0.753,2702,2788,3122,1,1986,1970,1972,1,1969,1949,1941,1,405,260,210,1,2058,2050,2039,1,2039,2024,2019,1,1983,1975,1962,1,2007,2011,1988,1
0.754,2882,2951,3270,1,1991,1973,1976,1,1975,1951,1944,1,407,256,213,1,2064,2049,2041,1,2045,2024,2022,1,1990,1975,1967,1,2015,2011,1992,1
0.755,2836,2890,3270,1,1991,1976,1976,1,1975,1955,1944,1,407,259,213,1,2064,2054,2041,1,2045,2029,2022,1,1990,1980,1967,1,2015,2015,1992,1
0.756,2809,2890,3190,1,1993,1976,1980,1,1977,1955,1948,1,408,259,216,1,2065,2054,2045,1,2047,2029,2027,1,1993,1980,1972,1,2017,2015,1999,1
0.757,2809,2755,3053,1,1993,1977,1980,1,1977,1957,1949,1,408,261,216,1,2065,2056,2046,1,2047,2033,2029,1,1993,1985,1975,1,2017,2019,2000,1
0.758,2749,2695,2967,1,1994,1977,1980,1,1977,1957,1950,1,408,263,215,1,2066,2059,2049,1,2049,2037,2031,1,1995,1989,1975,1,2018,2024,2002,1
0.759,2655,2637,2769,1,1993,1976,1979,1,1975,1956,1949,1,400,256,213,1,2063,2056,2047,1,2045,2032,2031,1,1992,1984,1977,1,2015,2019,2002,1
0.76,2610,2422,2349,1,1992,1973,1973,1,1975,1953,1945,1,406,254,209,1,2065,2055,2042,1,2049,2032,2026,1,1996,1984,1972,1,2020,2021,1998,1
0.761,2455,2365,2031,1,1988,1965,1969,1,1971,1947,1942,1,399,250,206,1,2061,2049,2042,1,2043,2025,2026,1,1990,1978,1972,1,2014,2013,1998,1
0.762,2404,2170,1726,1,1985,1965,1962,1,1968,1947,1937,1,397,250,201,1,2058,2049,2038,1,2041,2025,2020,1,1988,1978,1966,1,2010,2013,1992,1
0.763,2404,2188,1770,1,1985,1961,1960,1,1968,1943,1935,1,397,245,200,1,2058,2044,2036,1,2041,2020,2017,1,1988,1972,1964,1,2010,2006,1988,1
0.764,2351,2280,1770,1,1981,1960,1960,1,1964,1942,1935,1,391,247,200,1,2054,2044,2036,1,2036,2020,2017,1,1981,1972,1964,1,2005,2007,1988,1
0.765,2380,2339,1937,1,1980,1959,1959,1,1962,1940,1934,1,388,240,199,1,2051,2039,2034,1,2032,2014,2015,1,1977,1965,1963,1,2002,2000,1985,1
0.766,2398,2415,2133,1,1980,1960,1959,1,1963,1941,1934,1,396,246,200,1,2053,2042,2031,1,2035,2017,2013,1,1980,1969,1962,1,2005,2004,1984,1
0.767,2442,2491,2263,1,1980,1963,1959,1,1963,1944,1934,1,394,256,200,1,2051,2041,2032,1,2032,2015,2013,1,1978,1966,1958,1,2002,2000,1984,1
0.767,2442,2587,2686,1,1980,1963,1964,1,1963,1942,1936,1,394,249,204,1,2051,2041,2034,1,2032,2015,2013,1,1978,1966,1956,1,2002,2000,1983,1
0.769,2557,2776,2686,1,1985,1967,1964,1,1968,1946,1936,1,403,253,204,1,2056,2044,2034,1,2037,2018,2013,1,1982,1970,1956,1,2006,2005,1983,1
0.769,2634,2776,3239,1,1988,1967,1974,1,1971,1946,1944,1,406,253,212,1,2059,2044,2041,1,2040,2018,2020,1,1986,1970,1963,1,2009,2005,1991,1
0.771,2634,2886,3280,1,1988,1974,1977,1,1971,1953,1947,1,406,261,215,1,2059,2052,2043,1,2040,2027,2023,1,1986,1978,1969,1,2009,2013,1994,1
0.772,2678,2817,3332,1,1991,1976,1980,1,1973,1955,1949,1,404,264,216,1,2061,2056,2046,1,2042,2033,2027,1,1988,1984,1970,1,2011,2020,1997,1
0.773,2669,2780,3180,1,1992,1976,1980,1,1974,1955,1950,1,400,258,216,1,2061,2053,2046,1,2042,2029,2028,1,1988,1981,1974,1,2012,2017,2000,1
0.774,2607,2679,2972,1,1994,1977,1980,1,1977,1957,1950,1,410,260,216,1,2066,2056,2045,1,2049,2032,2031,1,1994,1985,1976,1,2019,2022,2003,1
0.775,2556,2600,2846,1,1994,1976,1980,1,1977,1957,1950,1,406,261,216,1,2066,2057,2048,1,2048,2035,2031,1,1994,1987,1976,1,2019,2022,2003,1
0.776,2454,2479,2329,1,1992,1976,1975,1,1975,1957,1947,1,404,261,211,1,2065,2057,2047,1,2047,2035,2031,1,1994,1987,1975,1,2018,2022,2003,1
0.777,2454,2015,1930,1,1992,1968,1969,1,1975,1950,1943,1,404,251,207,1,2065,2052,2044,1,2047,2030,2027,1,1994,1982,1973,1,2018,2016,1998,1
0.778,2195,1971,1930,1,1984,1965,1969,1,1968,1947,1943,1,395,250,207,1,2059,2051,2044,1,2042,2029,2027,1,1988,1981,1973,1,2011,2016,1998,1
0.779,2119,1867,1754,1,1981,1962,1965,1,1965,1943,1939,1,389,241,203,1,2055,2045,2040,1,2037,2021,2022,1,1983,1973,1970,1,2006,2007,1994,1
0.78,2197,1939,1783,1,1981,1961,1962,1,1965,1942,1937,1,395,241,202,1,2055,2043,2035,1,2039,2019,2018,1,1985,1972,1967,1,2009,2008,1991,1
0.781,2187,2079,1770,1,1980,1962,1960,1,1963,1943,1935,1,392,251,200,1,2053,2041,2035,1,2035,2017,2017,1,1981,1969,1962,1,2005,2004,1989,1
0.781,2187,2166,1997,1,1980,1960,1959,1,1963,1941,1933,1,392,244,200,1,2053,2041,2033,1,2035,2017,2015,1,1981,1969,1958,1,2005,2004,1986,1
0.782,2297,2258,1997,1,1979,1960,1959,1,1962,1941,1933,1,395,244,200,1,2053,2041,2033,1,2035,2016,2015,1,1980,1968,1958,1,2004,2005,1986,1
0.783,2350,2258,2263,1,1979,1960,1961,1,1962,1941,1934,1,395,244,201,1,2052,2041,2032,1,2034,2016,2012,1,1979,1968,1955,1,2001,2005,1984,1
0.785,2350,2504,2600,1,1979,1963,1965,1,1962,1943,1937,1,395,250,204,1,2052,2041,2033,1,2034,2015,2013,1,1979,1967,1958,1,2001,2002,1984,1
0.786,2493,2640,2870,1,1983,1968,1968,1,1966,1948,1939,1,398,256,206,1,2055,2047,2036,1,2036,2022,2016,1,1982,1975,1958,1,2003,2010,1986,1
0.787,2641,2842,3094,1,1987,1971,1973,1,1970,1950,1944,1,397,253,211,1,2057,2047,2038,1,2036,2020,2019,1,1981,1973,1964,1,2005,2007,1990,1
0.788,2612,2815,3084,1,1990,1974,1976,1,1974,1953,1947,1,407,259,214,1,2062,2052,2040,1,2044,2026,2026,1,1990,1979,1971,1,2014,2014,1998,1
0.789,2642,2626,3123,1,1991,1977,1978,1,1976,1957,1949,1,406,263,215,1,2064,2056,2044,1,2045,2032,2026,1,1990,1985,1971,1,2014,2019,1998,1
0.79,2598,2626,2880,1,1993,1977,1979,1,1978,1957,1950,1,408,263,215,1,2066,2056,2047,1,2048,2032,2030,1,1994,1985,1975,1,2016,2019,2003,1
0.791,2598,2459,2721,1,1993,1977,1979,1,1978,1958,1950,1,408,262,215,1,2066,2058,2048,1,2048,2034,2031,1,1994,1987,1978,1,2016,2021,2004,1
0.792,2497,2316,2721,1,1994,1975,1979,1,1979,1956,1950,1,405,260,215,1,2068,2058,2048,1,2051,2036,2031,1,2002,1990,1978,1,2026,2025,2004,1
0.793,2335,2132,2325,1,1991,1972,1975,1,1975,1953,1948,1,398,251,211,1,2064,2054,2046,1,2046,2030,2030,1,1996,1984,1978,1,2020,2019,2002,1
0.794,2348,2031,1963,1,1989,1969,1969,1,1973,1951,1943,1,402,254,208,1,2064,2055,2041,1,2048,2032,2025,1,1997,1986,1975,1,2022,2020,1999,1
0.795,2234,2043,1678,1,1986,1966,1965,1,1969,1948,1939,1,397,249,204,1,2060,2048,2040,1,2043,2025,2023,1,1991,1978,1970,1,2015,2011,1996,1
0.795,2234,1957,1546,1,1986,1963,1960,1,1969,1944,1934,1,397,249,200,1,2060,2048,2037,1,2043,2025,2018,1,1991,1978,1963,1,2015,2011,1989,1
0.797,2203,2030,1546,1,1982,1961,1960,1,1965,1942,1934,1,396,246,200,1,2055,2045,2037,1,2038,2022,2018,1,1984,1975,1963,1,2010,2011,1989,1
0.797,2226,2030,1757,1,1980,1961,1958,1,1964,1942,1933,1,395,246,199,1,2054,2045,2033,1,2036,2022,2015,1,1982,1975,1959,1,2006,2011,1986,1
0.799,2226,2221,1928,1,1980,1961,1958,1,1964,1942,1933,1,395,249,199,1,2054,2043,2031,1,2036,2019,2014,1,1982,1963,1959,1,2006,1999,1984,1
0.8,2260,2300,2032,1,1980,1962,1958,1,1963,1942,1933,1,393,253,200,1,2052,2045,2033,1,2033,2021,2014,1,1978,1967,1956,1,2002,2002,1984,1
0.801,2342,2385,2216,1,1979,1962,1960,1,1962,1941,1934,1,388,245,201,1,2049,2040,2032,1,2028,2014,2013,1,1973,1962,1957,1,1999,1997,1983,1
0.802,2348,2572,2663,1,1980,1964,1965,1,1965,1943,1938,1,398,250,206,1,2052,2043,2037,1,2032,2017,2017,1,1977,1966,1960,1,2002,2002,1988,1
0.803,2493,2734,3008,1,1987,1969,1969,1,1972,1947,1941,1,409,254,209,1,2060,2046,2037,1,2041,2021,2017,1,1985,1971,1960,1,2011,2008,1988,1
0.804,2548,2734,3341,1,1990,1969,1977,1,1975,1947,1948,1,411,254,215,1,2063,2046,2044,1,2045,2021,2024,1,1990,1971,1968,1,2013,2008,1995,1
0.805,2548,2705,3257,1,1990,1975,1979,1,1975,1954,1950,1,411,260,216,1,2063,2053,2046,1,2045,2029,2027,1,1990,1979,1972,1,2013,2015,1998,1
0.806,2572,2615,3257,1,1993,1976,1979,1,1978,1956,1950,1,407,263,216,1,2067,2057,2046,1,2049,2034,2027,1,2000,1985,1972,1,2023,2021,1998,1
0.807,2542,2556,3053,1,1993,1976,1979,1,1978,1955,1951,1,404,256,216,1,2067,2054,2047,1,2047,2031,2029,1,1997,1982,1975,1,2020,2018,2000,1
0.808,2467,2478,2828,1,1995,1976,1978,1,1980,1956,1951,1,411,259,216,1,2070,2058,2046,1,2052,2036,2029,1,2001,1988,1978,1,2025,2024,2004,1
0.809,2416,2351,2678,1,1994,1976,1978,1,1978,1954,1951,1,406,256,214,1,2068,2055,2048,1,2050,2034,2031,1,1999,1986,1977,1,2022,2021,2004,1
0.809,2416,2117,1932,1,1994,1972,1970,1,1978,1954,1944,1,406,256,207,1,2068,2055,2044,1,2050,2034,2028,1,1999,1986,1973,1,2022,2021,2000,1
0.81,2212,1949,1932,1,1987,1968,1970,1,1971,1950,1944,1,400,251,207,1,2063,2051,2044,1,2045,2029,2028,1,1993,1982,1973,1,2017,2019,2000,1
0.811,2134,1949,1524,1,1984,1968,1962,1,1968,1950,1937,1,397,251,201,1,2060,2051,2038,1,2041,2029,2022,1,1989,1982,1967,1,2012,2019,1994,1
0.812,2181,1936,1535,1,1982,1964,1959,1,1967,1946,1935,1,402,248,201,1,2060,2048,2035,1,2043,2026,2019,1,1990,1979,1965,1,2014,2017,1991,1
0.813,2140,2035,1517,1,1979,1962,1957,1,1964,1944,1933,1,398,250,199,1,2057,2048,2035,1,2039,2027,2019,1,1986,1979,1962,1,2009,2016,1989,1
0.815,2153,2087,1679,1,1978,1961,1957,1,1962,1941,1933,1,390,243,199,1,2053,2042,2032,1,2032,2019,2016,1,1978,1970,1961,1,2005,2007,1986,1
0.816,2200,2183,1889,1,1979,1962,1958,1,1963,1941,1933,1,397,247,201,1,2054,2043,2031,1,2035,2019,2014,1,1981,1970,1958,1,2005,2008,1985,1
0.817,2285,2292,2015,1,1979,1962,1958,1,1963,1942,1933,1,400,247,201,1,2053,2042,2031,1,2035,2016,2014,1,1979,1968,1958,1,2004,2007,1985,1
0.818,2336,2292,2346,1,1981,1962,1962,1,1965,1942,1935,1,401,247,204,1,2053,2042,2031,1,2034,2016,2012,1,1979,1968,1955,1,2002,2007,1983,1
0.819,2336,2733,2769,1,1981,1969,1968,1,1965,1947,1940,1,401,255,208,1,2053,2045,2034,1,2034,2020,2015,1,1979,1971,1961,1,2002,2008,1986,1
0.82,2494,2803,3080,1,1985,1973,1973,1,1968,1951,1943,1,401,260,211,1,2056,2051,2039,1,2037,2027,2019,1,1982,1979,1961,1,2005,2015,1990,1
0.821,2614,2936,3197,1,1989,1975,1976,1,1971,1953,1946,1,399,257,214,1,2058,2050,2042,1,2037,2025,2022,1,1983,1976,1967,1,2007,2012,1994,1
0.822,2562,2843,3092,1,1992,1977,1978,1,1975,1956,1949,1,409,260,216,1,2064,2053,2043,1,2045,2029,2028,1,1991,1981,1973,1,2015,2018,1999,1
0.823,2562,2620,3058,1,1993,1978,1979,1,1976,1958,1950,1,407,263,217,1,2065,2057,2047,1,2045,2034,2028,1,1991,1986,1973,1,2015,2021,1999,1
0.823,2562,2620,2787,1,1993,1978,1979,1,1976,1958,1950,1,407,263,216,1,2065,2057,2049,1,2045,2034,2031,1,1991,1986,1976,1,2015,2021,2003,1
0.824,2496,2508,2787,1,1995,1977,1979,1,1978,1957,1950,1,409,261,216,1,2068,2057,2049,1,2050,2035,2031,1,1995,1988,1976,1,2020,2025,2003,1
0.825,2411,2508,2386,1,1993,1977,1976,1,1976,1957,1949,1,404,261,213,1,2066,2057,2048,1,2048,2035,2031,1,1995,1988,1977,1,2018,2025,2004,1
0.826,2410,2230,1986,1,1992,1973,1971,1,1975,1954,1945,1,408,258,209,1,2067,2055,2043,1,2051,2033,2027,1,1998,1987,1975,1,2022,2024,2001,1
0.827,2269,2108,1688,1,1987,1969,1967,1,1971,1951,1942,1,401,259,206,1,2063,2055,2042,1,2045,2033,2026,1,1993,1986,1970,1,2016,2022,1998,1
0.829,2101,1912,1548,1,1982,1964,1963,1,1965,1946,1939,1,389,247,203,1,2057,2048,2039,1,2039,2024,2023,1,1986,1977,1969,1,2010,2013,1994,1
0.83,2179,1948,1604,1,1982,1962,1959,1,1965,1944,1935,1,395,248,200,1,2057,2048,2035,1,2039,2024,2017,1,1986,1977,1963,1,2010,2013,1988,1
0.831,2217,2046,1604,1,1980,1961,1959,1,1962,1942,1935,1,395,246,200,1,2053,2045,2035,1,2036,2021,2017,1,1983,1974,1963,1,2007,2012,1988,1
0.832,2248,2046,1851,1,1979,1961,1959,1,1962,1942,1933,1,395,246,200,1,2053,2045,2033,1,2034,2021,2014,1,1981,1974,1959,1,2004,2012,1986,1
0.833,2248,2227,2009,1,1979,1961,1959,1,1962,1942,1933,1,395,249,201,1,2053,2043,2032,1,2034,2018,2013,1,1981,1964,1959,1,2004,2005,1984,1
0.834,2307,2308,2118,1,1979,1962,1960,1,1962,1943,1933,1,395,253,201,1,2052,2045,2033,1,2033,2019,2014,1,1979,1967,1956,1,2001,2006,1983,1
0.835,2435,2399,2377,1,1981,1962,1963,1,1964,1942,1935,1,392,246,203,1,2052,2040,2032,1,2030,2013,2013,1,1976,1962,1957,1,1999,2000,1983,1
0.836,2444,2585,2731,1,1984,1967,1969,1,1968,1946,1940,1,402,253,209,1,2057,2045,2039,1,2037,2019,2020,1,1982,1969,1964,1,2005,2007,1991,1
0.836,2547,2585,3016,1,1991,1967,1973,1,1975,1946,1944,1,412,253,212,1,2065,2045,2039,1,2046,2019,2020,1,1990,1969,1964,1,2015,2007,1991,1
0.838,2547,2768,3099,1,1991,1974,1976,1,1975,1953,1947,1,412,256,215,1,2065,2051,2043,1,2046,2026,2024,1,1990,1977,1969,1,2015,2013,1994,1
0.839,2588,2709,3099,1,1994,1975,1976,1,1979,1955,1947,1,414,258,215,1,2068,2054,2043,1,2050,2029,2024,1,1994,1982,1969,1,2019,2019,1994,1
0.839,2575,2709,2932,1,1995,1975,1979,1,1979,1955,1950,1,410,258,217,1,2068,2054,2047,1,2050,2029,2029,1,1996,1982,1974,1,2019,2019,2000,1
0.84,2511,2613,2789,1,1995,1976,1979,1,1980,1956,1950,1,416,260,217,1,2071,2056,2047,1,2055,2032,2029,1,2001,1985,1977,1,2025,2023,2002,1
0.842,2483,2497,2701,1,1995,1976,1979,1,1980,1957,1950,1,412,265,216,1,2070,2060,2049,1,2053,2038,2032,1,1999,1991,1977,1,2023,2027,2004,1
0.843,2332,2350,2406,1,1992,1974,1976,1,1975,1955,1948,1,399,256,213,1,2065,2056,2047,1,2049,2033,2031,1,1996,1985,1978,1,2021,2021,2003,1
0.843,2326,2158,1702,1,1990,1970,1966,1,1974,1952,1940,1,404,255,205,1,2065,2055,2041,1,2049,2033,2024,1,1996,1986,1971,1,2021,2022,1997,1
0.845,2176,2051,1702,1,1985,1966,1966,1,1968,1948,1940,1,399,250,205,1,2059,2051,2041,1,2043,2028,2024,1,1989,1982,1971,1,2014,2019,1997,1
0.845,2142,2051,1534,1,1983,1966,1960,1,1965,1948,1935,1,396,250,200,1,2056,2051,2036,1,2040,2028,2019,1,1986,1982,1965,1,2010,2019,1992,1
0.847,2142,2083,1628,1,1983,1962,1959,1,1965,1944,1934,1,396,248,199,1,2056,2045,2033,1,2040,2022,2016,1,1986,1968,1964,1,2010,2004,1989,1
0.848,2145,2157,1670,1,1980,1961,1958,1,1963,1943,1933,1,394,251,198,1,2054,2046,2033,1,2037,2024,2016,1,1983,1971,1960,1,2006,2007,1987,1
0.849,2185,2215,1843,1,1979,1960,1958,1,1962,1941,1933,1,387,244,199,1,2050,2041,2031,1,2031,2017,2014,1,1977,1965,1960,1,2004,2001,1985,1
0.85,2215,2279,2041,1,1979,1960,1960,1,1963,1941,1934,1,395,247,201,1,2052,2042,2031,1,2034,2018,2013,1,1980,1968,1957,1,2004,2004,1984,1
0.85,2278,2279,2178,1,1980,1960,1960,1,1964,1941,1934,1,400,247,201,1,2053,2042,2031,1,2034,2018,2013,1,1979,1968,1957,1,2003,2004,1984,1
0.851,2278,2588,2583,1,1980,1963,1965,1,1964,1943,1937,1,400,249,205,1,2053,2042,2034,1,2034,2017,2015,1,1979,1967,1960,1,2003,2001,1984,1
