Time (s),G0_Short,G0_Long1,G0_Long2,G0_Emitter,G1_Short,G1_Long1,G1_Long2,G1_Emitter,G2_Short,G2_Long1,G2_Long2,G2_Emitter,G3_Short,G3_Long1,G3_Long2,G3_Emitter,G4_Short,G4_Long1,G4_Long2,G4_Emitter,G5_Short,G5_Long1,G5_Long2,G5_Emitter,G6_Short,G6_Long1,G6_Long2,G6_Emitter,G7_Short,G7_Long1,G7_Long2,G7_Emitter,Inv_G0_Short,Inv_G0_Long1,Inv_G0_Long2,Inv_G0_Emitter,Inv_G1_Short,Inv_G1_Long1,Inv_G1_Long2,Inv_G1_Emitter,Inv_G2_Short,Inv_G2_Long1,Inv_G2_Long2,Inv_G2_Emitter,Inv_G3_Short,Inv_G3_Long1,Inv_G3_Long2,Inv_G3_Emitter,Inv_G4_Short,Inv_G4_Long1,Inv_G4_Long2,Inv_G4_Emitter,Inv_G5_Short,Inv_G5_Long1,Inv_G5_Long2,Inv_G5_Emitter,Inv_G6_Short,Inv_G6_Long1,Inv_G6_Long2,Inv_G6_Emitter,Inv_G7_Short,Inv_G7_Long1,Inv_G7_Long2,Inv_G7_Emitter
0.0,1834,1256,808,2,2108,2124,2118,2,2113,2138,2139,2,3682,3853,3887,2,2025,2045,2046,2,2032,2064,2056,2,2064,2089,2091,2,2040,2055,2064,2,2266,2844,3292,2,1992,1976,1982,2,1987,1962,1961,2,418,247,213,2,2075,2055,2054,2,2068,2036,2044,2,2036,2011,2009,2,2060,2045,2036,2
0.001,1702,1256,808,2,2105,2124,2118,2,2110,2138,2139,2,3685,3853,3887,2,2023,2045,2046,2,2030,2064,2056,2,2062,2089,2091,2,2038,2055,2064,2,2398,2844,3292,2,1995,1976,1982,2,1990,1962,1961,2,415,247,213,2,2077,2055,2054,2,2070,2036,2044,2,2038,2011,2009,2,2062,2045,2036,2
0.002,1702,1445,965,2,2105,2122,2118,2,2110,2133,2138,2,3685,3845,3887,2,2023,2038,2045,2,2030,2055,2054,2,2062,2080,2086,2,2038,2047,2062,2,2398,2655,3135,2,1995,1978,1982,2,1990,1967,1962,2,415,255,213,2,2077,2062,2055,2,2070,2045,2046,2,2038,2020,2014,2,2062,2053,2038,2
0.003,1717,1555,965,2,2103,2121,2118,2,2110,2132,2138,2,3692,3841,3887,2,2023,2035,2045,2,2030,2051,2054,2,2056,2075,2086,2,2033,2041,2062,2,2383,2545,3135,2,1997,1979,1982,2,1990,1968,1962,2,408,259,213,2,2077,2065,2055,2,2070,2049,2046,2,2044,2025,2014,2,2067,2059,2038,2
0.004,1735,1634,1185,2,2103,2122,2118,2,2111,2133,2138,2,3697,3847,3887,2,2024,2038,2045,2,2033,2054,2053,2,2060,2078,2083,2,2037,2044,2062,2,2365,2466,2915,2,1997,1978,1982,2,1989,1967,1962,2,403,253,213,2,2076,2062,2055,2,2067,2046,2047,2,2040,2022,2017,2,2063,2056,2038,2
0.005,1831,1775,1563,2,2103,2123,2121,2,2110,2133,2140,2,3691,3845,3889,2,2022,2036,2047,2,2029,2052,2054,2,2057,2075,2082,2,2034,2041,2061,2,2269,2325,2537,2,1997,1977,1979,2,1990,1967,1960,2,409,255,211,2,2078,2064,2053,2,2071,2048,2046,2,2043,2025,2018,2,2066,2059,2039,2
0.006,1935,1928,1847,2,2107,2126,2124,2,2114,2136,2142,2,3698,3850,3892,2,2025,2041,2046,2,2033,2056,2054,2,2061,2079,2085,2,2039,2046,2061,2,2165,2172,2253,2,1993,1974,1976,2,1986,1964,1958,2,402,250,208,2,2075,2059,2054,2,2067,2044,2046,2,2039,2021,2015,2,2061,2054,2039,2
0.007,2037,2200,2524,2,2111,2130,2133,2,2118,2140,2149,2,3701,3850,3900,2,2028,2041,2051,2,2036,2056,2059,2,2064,2079,2092,2,2044,2046,2067,2,2063,1900,1576,2,1989,1970,1967,2,1982,1960,1951,2,399,250,200,2,2072,2059,2049,2,2064,2044,2041,2,2036,2021,2008,2,2056,2054,2033,2
0.008,2037,2289,2599,2,2111,2136,2136,2,2118,2145,2152,2,3701,3858,3901,2,2028,2047,2054,2,2036,2061,2062,2,2064,2085,2094,2,2044,2052,2071,2,2063,1811,1501,2,1989,1964,1964,2,1982,1955,1948,2,399,242,199,2,2072,2053,2046,2,2064,2039,2038,2,2036,2015,2006,2,2056,2048,2029,2
0.009,2146,2228,2599,2,2117,2137,2136,2,2123,2147,2152,2,3707,3858,3901,2,2035,2048,2054,2,2043,2062,2062,2,2074,2086,2094,2,2052,2051,2071,2,1954,1872,1501,2,1983,1963,1964,2,1977,1953,1948,2,393,242,199,2,2065,2052,2046,2,2057,2038,2038,2,2026,2014,2006,2,2048,2049,2029,2
0.01,2131,2209,2521,2,2118,2139,2138,2,2125,2150,2154,2,3710,3865,3902,2,2038,2052,2057,2,2048,2068,2065,2,2079,2093,2096,2,2057,2058,2074,2,1969,1891,1579,2,1982,1961,1962,2,1975,1950,1946,2,390,235,198,2,2062,2048,2043,2,2052,2032,2035,2,2021,2007,2004,2,2043,2042,2026,2
0.011,2128,2127,2366,2,2118,2139,2138,2,2125,2149,2155,2,3704,3860,3901,2,2037,2050,2060,2,2045,2067,2068,2,2077,2091,2097,2,2055,2056,2076,2,1972,1973,1734,2,1982,1961,1962,2,1975,1951,1945,2,396,240,199,2,2063,2050,2040,2,2055,2033,2032,2,2023,2009,2003,2,2045,2044,2024,2
0.012,2109,2034,2276,2,2120,2138,2138,2,2127,2147,2155,2,3711,3852,3901,2,2041,2046,2059,2,2051,2062,2068,2,2083,2093,2101,2,2060,2060,2076,2,1991,2066,1824,2,1980,1962,1962,2,1973,1953,1945,2,389,248,199,2,2059,2054,2041,2,2049,2038,2032,2,2017,2007,1999,2,2040,2040,2024,2
0.013,2001,1951,2109,2,2119,2138,2137,2,2126,2148,2155,2,3710,3858,3901,2,2040,2051,2060,2,2052,2068,2070,2,2084,2093,2101,2,2061,2060,2078,2,2099,2149,1991,2,1981,1962,1963,2,1974,1952,1945,2,390,242,199,2,2060,2049,2040,2,2048,2032,2030,2,2016,2007,1999,2,2039,2040,2022,2
0.014,2016,1680,2109,2,2119,2134,2137,2,2126,2146,2155,2,3710,3856,3901,2,2040,2051,2060,2,2052,2069,2070,2,2084,2095,2101,2,2061,2062,2078,2,2084,2420,1991,2,1981,1966,1963,2,1974,1954,1945,2,390,244,199,2,2060,2049,2040,2,2048,2031,2030,2,2016,2005,1999,2,2039,2038,2022,2
0.015,1939,1680,1386,2,2115,2134,2129,2,2121,2146,2149,2,3704,3856,3895,2,2037,2051,2057,2,2048,2069,2067,2,2079,2095,2100,2,2058,2062,2075,2,2161,2420,2714,2,1985,1966,1971,2,1979,1954,1951,2,396,244,205,2,2063,2049,2043,2,2052,2031,2033,2,2021,2005,2000,2,2042,2038,2025,2
0.016,1939,1453,1175,2,2115,2126,2125,2,2121,2137,2145,2,3704,3845,3891,2,2037,2043,2053,2,2048,2060,2063,2,2079,2086,2094,2,2058,2054,2071,2,2161,2647,2925,2,1985,1974,1975,2,1979,1963,1955,2,396,255,209,2,2063,2057,2047,2,2052,2040,2037,2,2021,2014,2006,2,2042,2046,2029,2
0.017,1868,1524,1000,2,2111,2123,2121,2,2116,2134,2142,2,3699,3840,3888,2,2033,2039,2048,2,2043,2054,2059,2,2074,2080,2094,2,2054,2047,2068,2,2232,2576,3100,2,1989,1977,1979,2,1984,1966,1958,2,401,260,212,2,2067,2061,2052,2,2057,2046,2041,2,2026,2020,2006,2,2046,2053,2032,2
0.018,1837,1538,1093,2,2108,2122,2119,2,2114,2134,2139,2,3700,3846,3886,2,2031,2040,2046,2,2042,2057,2056,2,2073,2082,2089,2,2052,2049,2065,2,2263,2562,3007,2,1992,1978,1981,2,1986,1966,1961,2,400,254,214,2,2069,2060,2054,2,2058,2043,2044,2,2027,2018,2011,2,2048,2051,2035,2
0.019,1878,1684,1326,2,2106,2122,2119,2,2111,2133,2138,2,3691,3841,3886,2,2026,2036,2047,2,2035,2051,2056,2,2066,2076,2085,2,2044,2042,2062,2,2222,2416,2774,2,1994,1978,1981,2,1989,1967,1962,2,409,259,214,2,2074,2064,2053,2,2065,2049,2044,2,2034,2024,2015,2,2056,2058,2038,2
0.02,1929,1789,1456,2,2106,2122,2118,2,2111,2131,2138,2,3694,3841,3886,2,2025,2034,2044,2,2035,2049,2053,2,2065,2073,2085,2,2044,2040,2060,2,2171,2311,2644,2,1994,1978,1982,2,1989,1969,1962,2,406,259,214,2,2075,2066,2056,2,2065,2051,2047,2,2035,2027,2015,2,2056,2060,2040,2
0.021,1989,1893,1772,2,2105,2122,2119,2,2110,2132,2138,2,3694,3841,3888,2,2025,2034,2042,2,2033,2049,2052,2,2062,2073,2083,2,2043,2040,2058,2,2111,2207,2328,2,1995,1978,1981,2,1990,1968,1962,2,406,259,212,2,2075,2066,2058,2,2067,2051,2048,2,2038,2027,2017,2,2057,2060,2042,2
0.022,1989,2265,2161,2,2105,2127,2124,2,2110,2136,2141,2,3694,3848,3892,2,2025,2036,2045,2,2033,2050,2054,2,2062,2074,2083,2,2043,2042,2060,2,2111,1835,1939,2,1995,1973,1976,2,1990,1964,1959,2,406,252,208,2,2075,2064,2055,2,2067,2050,2046,2,2038,2026,2017,2,2057,2058,2040,2
0.023,2186,2411,2161,2,2110,2131,2124,2,2117,2139,2141,2,3703,3850,3892,2,2030,2038,2045,2,2038,2053,2054,2,2067,2075,2083,2,2046,2043,2060,2,1914,1689,1939,2,1990,1969,1976,2,1983,1961,1959,2,397,250,208,2,2070,2062,2055,2,2062,2047,2046,2,2033,2025,2017,2,2054,2057,2040,2
0.024,2306,2411,2720,2,2114,2131,2134,2,2121,2139,2149,2,3709,3850,3899,2,2034,2038,2052,2,2043,2053,2061,2,2072,2075,2093,2,2051,2043,2067,2,1794,1689,1380,2,1986,1969,1966,2,1979,1961,1951,2,391,250,201,2,2066,2062,2048,2,2057,2047,2039,2,2028,2025,2007,2,2049,2057,2033,2
0.025,2218,2445,2773,2,2115,2134,2137,2,2122,2142,2152,2,3704,3851,3901,2,2034,2041,2056,2,2041,2056,2065,2,2071,2078,2094,2,2049,2045,2070,2,1882,1655,1327,2,1985,1966,1963,2,1978,1958,1948,2,396,249,199,2,2066,2059,2044,2,2059,2044,2035,2,2029,2022,2006,2,2051,2055,2030,2
0.026,2292,2368,2838,2,2118,2135,2139,2,2125,2143,2154,2,3709,3846,3902,2,2037,2040,2056,2,2046,2055,2066,2,2076,2078,2098,2,2055,2054,2072,2,1808,1732,1262,2,1982,1965,1961,2,1975,1957,1946,2,391,254,198,2,2063,2060,2044,2,2054,2045,2034,2,2024,2022,2002,2,2045,2046,2028,2
0.027,2317,2352,2727,2,2120,2138,2139,2,2127,2146,2155,2,3711,3855,3902,2,2039,2047,2059,2,2049,2063,2068,2,2079,2087,2099,2,2057,2054,2075,2,1783,1748,1373,2,1980,1962,1961,2,1973,1954,1945,2,389,245,198,2,2061,2053,2041,2,2051,2037,2032,2,2021,2013,2001,2,2043,2046,2025,2
0.028,2258,2229,2727,2,2120,2139,2139,2,2127,2148,2155,2,3711,3859,3902,2,2039,2051,2059,2,2049,2067,2068,2,2079,2092,2099,2,2057,2059,2075,2,1842,1871,1373,2,1980,1961,1961,2,1973,1952,1945,2,389,241,198,2,2061,2049,2041,2,2051,2033,2032,2,2021,2008,2001,2,2043,2041,2025,2
0.029,2181,2229,2456,2,2120,2139,2139,2,2126,2148,2155,2,3709,3859,3902,2,2039,2051,2059,2,2049,2067,2070,2,2080,2092,2102,2,2059,2059,2077,2,1919,1871,1644,2,1980,1961,1961,2,1974,1952,1945,2,391,241,198,2,2061,2049,2041,2,2051,2033,2030,2,2020,2008,1998,2,2041,2041,2023,2
0.03,2181,2124,2292,2,2120,2137,2138,2,2126,2147,2155,2,3709,3855,3900,2,2039,2051,2059,2,2049,2068,2070,2,2080,2094,2102,2,2059,2061,2078,2,1919,1976,1808,2,1980,1963,1962,2,1974,1953,1945,2,391,245,200,2,2061,2049,2041,2,2051,2032,2030,2,2020,2006,1998,2,2041,2039,2022,2
0.031,2082,1943,2169,2,2118,2134,2137,2,2125,2144,2154,2,3706,3849,3900,2,2039,2047,2058,2,2049,2064,2070,2,2080,2091,2105,2,2060,2057,2078,2,2018,2157,1931,2,1982,1966,1963,2,1975,1956,1946,2,394,251,200,2,2061,2053,2042,2,2051,2036,2030,2,2020,2009,1995,2,2040,2043,2022,2
0.032,1900,1674,1724,2,2114,2132,2131,2,2121,2143,2150,2,3706,3854,3895,2,2037,2049,2056,2,2048,2067,2067,2,2080,2094,2100,2,2059,2060,2075,2,2200,2426,2376,2,1986,1968,1969,2,1979,1957,1950,2,394,246,205,2,2063,2051,2044,2,2052,2033,2033,2,2020,2006,2000,2,2041,2040,2025,2
0.033,1883,1600,1475,2,2110,2128,2126,2,2116,2139,2146,2,3695,3847,3890,2,2032,2043,2054,2,2041,2059,2064,2,2073,2085,2094,2,2051,2051,2067,2,2217,2500,2625,2,1990,1972,1974,2,1984,1961,1954,2,405,253,210,2,2068,2057,2046,2,2059,2041,2036,2,2027,2015,2006,2,2049,2049,2033,2
0.034,1785,1712,1266,2,2108,2125,2122,2,2114,2134,2143,2,3697,3841,3888,2,2030,2038,2049,2,2040,2053,2060,2,2071,2078,2093,2,2049,2044,2067,2,2315,2388,2834,2,1992,1975,1978,2,1986,1966,1957,2,403,259,212,2,2070,2062,2051,2,2060,2047,2040,2,2029,2022,2007,2,2051,2056,2033,2
0.035,1786,1724,1364,2,2106,2124,2119,2,2112,2134,2140,2,3693,3841,3886,2,2027,2038,2045,2,2036,2053,2055,2,2066,2078,2088,2,2046,2044,2061,2,2314,2376,2736,2,1994,1976,1981,2,1988,1966,1960,2,407,259,214,2,2073,2062,2055,2,2064,2047,2045,2,2034,2022,2012,2,2054,2056,2039,2
0.036,1786,1915,1531,2,2106,2123,2119,2,2112,2132,2139,2,3693,3842,3886,2,2027,2036,2044,2,2036,2051,2053,2,2066,2075,2085,2,2046,2042,2060,2,2314,2185,2569,2,1994,1977,1981,2,1988,1968,1961,2,407,258,214,2,2073,2064,2056,2,2064,2049,2047,2,2034,2025,2015,2,2054,2058,2040,2
0.037,1868,1998,1531,2,2104,2123,2119,2,2110,2132,2139,2,3695,3841,3886,2,2025,2035,2044,2,2033,2049,2053,2,2063,2072,2085,2,2041,2038,2060,2,2232,2102,2569,2,1996,1977,1981,2,1990,1968,1961,2,405,259,214,2,2075,2065,2056,2,2067,2051,2047,2,2037,2028,2015,2,2059,2062,2040,2
0.038,1943,2063,1736,2,2105,2123,2120,2,2111,2133,2139,2,3699,3848,3888,2,2026,2038,2044,2,2035,2053,2053,2,2064,2077,2083,2,2043,2043,2060,2,2157,2037,2364,2,1995,1977,1980,2,1989,1967,1961,2,401,252,212,2,2074,2062,2056,2,2065,2047,2047,2,2036,2023,2017,2,2057,2057,2040,2
0.039,1961,2223,2165,2,2105,2125,2125,2,2111,2134,2142,2,3694,3846,3891,2,2025,2037,2047,2,2031,2050,2056,2,2061,2074,2084,2,2039,2040,2062,2,2139,1877,1935,2,1995,1975,1975,2,1989,1966,1958,2,406,254,209,2,2075,2063,2053,2,2069,2050,2044,2,2039,2026,2016,2,2061,2060,2038,2
0.04,2097,2342,2488,2,2109,2128,2129,2,2116,2137,2145,2,3702,3845,3894,2,2030,2037,2048,2,2037,2049,2057,2,2067,2073,2088,2,2045,2040,2064,2,2003,1758,1612,2,1991,1972,1971,2,1984,1963,1955,2,398,255,206,2,2070,2063,2052,2,2063,2051,2043,2,2033,2027,2012,2,2055,2060,2036,2
0.041,2308,2527,2697,2,2115,2133,2133,2,2122,2142,2148,2,3708,3855,3898,2,2035,2044,2052,2,2044,2058,2061,2,2074,2082,2091,2,2051,2049,2068,2,1792,1573,1403,2,1985,1967,1967,2,1978,1958,1952,2,392,245,202,2,2065,2056,2048,2,2056,2042,2039,2,2026,2018,2009,2,2049,2051,2032,2
0.042,2224,2522,2697,2,2116,2139,2133,2,2122,2147,2148,2,3708,3861,3898,2,2035,2050,2052,2,2044,2065,2061,2,2074,2090,2091,2,2051,2056,2068,2,1876,1578,1403,2,1984,1961,1967,2,1978,1953,1952,2,392,239,202,2,2065,2050,2048,2,2056,2035,2039,2,2026,2010,2009,2,2049,2044,2032,2
0.043,2213,2522,2756,2,2118,2139,2138,2,2124,2147,2153,2,3708,3861,3902,2,2037,2050,2057,2,2046,2065,2066,2,2076,2090,2098,2,2055,2056,2074,2,1887,1578,1344,2,1982,1961,1962,2,1976,1953,1947,2,392,239,198,2,2063,2050,2043,2,2054,2035,2034,2,2024,2010,2002,2,2045,2044,2026,2
0.044,2213,2309,2616,2,2118,2139,2139,2,2124,2149,2154,2,3708,3860,3902,2,2037,2052,2059,2,2046,2067,2068,2,2076,2093,2099,2,2055,2060,2077,2,1887,1791,1484,2,1982,1961,1961,2,1976,1951,1946,2,392,240,198,2,2063,2048,2041,2,2054,2033,2032,2,2024,2007,2001,2,2045,2040,2023,2
0.045,2168,2192,2616,2,2120,2139,2139,2,2126,2149,2154,2,3710,3858,3902,2,2039,2051,2059,2,2049,2066,2068,2,2076,2091,2099,2,2055,2057,2077,2,1932,1908,1484,2,1980,1961,1961,2,1974,1951,1946,2,390,242,198,2,2061,2049,2041,2,2051,2034,2032,2,2024,2009,2001,2,2045,2043,2023,2
0.046,2094,2096,2412,2,2120,2139,2138,2,2126,2149,2154,2,3712,3863,3901,2,2041,2054,2060,2,2053,2071,2070,2,2082,2097,2100,2,2060,2063,2078,2,2006,2004,1688,2,1980,1961,1962,2,1974,1951,1946,2,388,237,199,2,2059,2046,2040,2,2047,2029,2030,2,2018,2003,2000,2,2040,2037,2022,2
0.047,2108,2005,2182,2,2120,2138,2137,2,2125,2148,2154,2,3704,3857,3899,2,2039,2051,2062,2,2049,2068,2071,2,2079,2094,2100,2,2057,2059,2078,2,1992,2095,1918,2,1980,1962,1963,2,1975,1952,1946,2,396,243,201,2,2061,2049,2038,2,2051,2032,2029,2,2021,2006,2000,2,2043,2041,2022,2
0.048,2015,1874,2004,2,2118,2133,2135,2,2124,2144,2153,2,3704,3849,3899,2,2039,2047,2060,2,2050,2063,2071,2,2081,2089,2103,2,2060,2055,2078,2,2085,2226,2096,2,1982,1967,1965,2,1976,1956,1947,2,396,251,201,2,2061,2053,2040,2,2050,2037,2029,2,2019,2011,1997,2,2040,2045,2022,2
0.049,1929,1568,1249,2,2113,2130,2125,2,2119,2142,2146,2,3698,3849,3891,2,2034,2047,2053,2,2044,2063,2064,2,2075,2089,2097,2,2056,2055,2072,2,2171,2532,2851,2,1987,1970,1975,2,1981,1958,1954,2,402,251,209,2,2066,2053,2047,2,2056,2037,2036,2,2025,2011,2003,2,2044,2045,2028,2
0.05,1929,1401,1122,2,2113,2123,2122,2,2119,2135,2143,2,3698,3844,3888,2,2034,2041,2050,2,2044,2057,2060,2,2075,2082,2091,2,2056,2049,2069,2,2171,2699,2978,2,1987,1977,1978,2,1981,1965,1957,2,402,256,212,2,2066,2059,2050,2,2056,2043,2040,2,2025,2018,2009,2,2044,2051,2031,2
0.051,1814,1482,1122,2,2107,2122,2122,2,2113,2133,2143,2,3694,3842,3888,2,2027,2038,2050,2,2037,2053,2060,2,2068,2077,2091,2,2046,2043,2069,2,2286,2618,2978,2,1993,1978,1978,2,1987,1967,1957,2,406,258,212,2,2073,2062,2050,2,2063,2047,2040,2,2032,2023,2009,2,2054,2057,2031,2
0.052,1792,1514,1202,2,2105,2122,2120,2,2112,2133,2141,2,3696,3847,3887,2,2027,2040,2048,2,2037,2056,2057,2,2068,2080,2087,2,2046,2046,2066,2,2308,2586,2898,2,1995,1978,1980,2,1988,1967,1959,2,404,253,213,2,2073,2060,2052,2,2063,2044,2043,2,2032,2020,2013,2,2054,2054,2034,2
0.053,1905,1646,1390,2,2104,2121,2120,2,2110,2131,2140,2,3689,3841,3886,2,2024,2035,2048,2,2031,2050,2056,2,2062,2074,2084,2,2040,2041,2063,2,2195,2454,2710,2,1996,1979,1980,2,1990,1969,1960,2,411,259,214,2,2076,2065,2052,2,2069,2050,2044,2,2038,2026,2016,2,2060,2059,2037,2
0.054,1923,1758,1504,2,2104,2120,2119,2,2110,2130,2139,2,3693,3835,3886,2,2024,2031,2045,2,2033,2044,2053,2,2064,2068,2085,2,2042,2036,2061,2,2177,2342,2596,2,1996,1980,1981,2,1990,1970,1961,2,407,265,214,2,2076,2069,2055,2,2067,2056,2047,2,2036,2032,2015,2,2058,2064,2039,2
0.055,2004,1845,1736,2,2107,2121,2121,2,2114,2132,2139,2,3699,3843,3888,2,2027,2035,2046,2,2034,2050,2054,2,2065,2073,2084,2,2042,2041,2061,2,2096,2255,2364,2,1993,1979,1979,2,1986,1968,1961,2,401,257,212,2,2073,2065,2054,2,2066,2050,2046,2,2035,2027,2016,2,2058,2059,2039,2
0.056,2045,2333,1736,2,2108,2130,2121,2,2114,2139,2139,2,3699,3852,3888,2,2027,2041,2046,2,2034,2055,2054,2,2065,2080,2084,2,2042,2047,2061,2,2055,1767,2364,2,1992,1970,1979,2,1986,1961,1961,2,401,248,212,2,2073,2059,2054,2,2066,2045,2046,2,2035,2020,2016,2,2058,2053,2039,2
0.057,2182,2333,2542,2,2112,2130,2131,2,2118,2139,2147,2,3702,3852,3898,2,2030,2041,2051,2,2037,2055,2059,2,2068,2080,2091,2,2046,2047,2066,2,1918,1767,1558,2,1988,1970,1969,2,1982,1961,1953,2,398,248,202,2,2070,2059,2049,2,2063,2045,2041,2,2032,2020,2009,2,2054,2053,2034,2
0.057,2182,2497,2700,2,2112,2136,2135,2,2118,2145,2150,2,3702,3857,3900,2,2030,2046,2054,2,2037,2061,2062,2,2068,2085,2093,2,2046,2053,2070,2,1918,1603,1400,2,1988,1964,1965,2,1982,1955,1950,2,398,243,200,2,2070,2054,2046,2,2063,2039,2038,2,2032,2015,2007,2,2054,2047,2030,2
0.059,2342,2452,2700,2,2117,2138,2135,2,2123,2147,2150,2,3709,3856,3900,2,2036,2046,2054,2,2044,2061,2062,2,2076,2085,2093,2,2053,2052,2070,2,1758,1648,1400,2,1983,1962,1965,2,1977,1953,1950,2,391,244,200,2,2064,2054,2046,2,2056,2039,2038,2,2024,2015,2007,2,2047,2048,2030,2
0.06,2351,2458,2690,2,2119,2140,2138,2,2126,2150,2153,2,3714,3863,3901,2,2039,2051,2057,2,2049,2068,2065,2,2081,2092,2095,2,2058,2060,2074,2,1749,1642,1410,2,1981,1960,1962,2,1974,1950,1947,2,386,237,199,2,2061,2049,2043,2,2051,2032,2035,2,2019,2008,2005,2,2042,2040,2026,2
0.061,2312,2372,2567,2,2119,2139,2139,2,2125,2149,2154,2,3706,3858,3901,2,2038,2049,2060,2,2047,2066,2068,2,2079,2091,2097,2,2056,2058,2076,2,1788,1728,1533,2,1981,1961,1961,2,1975,1951,1946,2,394,242,199,2,2062,2051,2040,2,2053,2034,2032,2,2021,2009,2003,2,2044,2042,2024,2
0.062,2301,2263,2503,2,2120,2138,2139,2,2126,2147,2155,2,3707,3848,3901,2,2040,2050,2059,2,2050,2067,2068,2,2082,2093,2101,2,2060,2061,2077,2,1799,1837,1597,2,1980,1962,1961,2,1974,1953,1945,2,393,252,199,2,2060,2050,2041,2,2050,2033,2032,2,2018,2007,1999,2,2040,2039,2023,2
0.063,2279,2187,2263,2,2120,2139,2139,2,2126,2149,2155,2,3704,3856,3900,2,2040,2050,2059,2,2050,2067,2070,2,2081,2093,2104,2,2061,2061,2078,2,1821,1913,1837,2,1980,1961,1961,2,1974,1951,1945,2,396,244,200,2,2060,2050,2041,2,2050,2033,2030,2,2019,2007,1996,2,2039,2039,2022,2
0.064,2279,2020,2008,2,2120,2138,2136,2,2126,2148,2153,2,3704,3856,3898,2,2040,2051,2059,2,2050,2068,2070,2,2081,2095,2102,2,2061,2063,2079,2,1821,2080,2092,2,1980,1962,1964,2,1974,1952,1947,2,396,244,202,2,2060,2049,2041,2,2050,2032,2030,2,2019,2005,1998,2,2039,2037,2021,2
0.065,2103,1808,2008,2,2114,2133,2136,2,2120,2144,2153,2,3699,3850,3898,2,2035,2047,2059,2,2046,2063,2070,2,2079,2089,2102,2,2057,2056,2079,2,1997,2292,2092,2,1986,1967,1964,2,1980,1956,1947,2,401,250,202,2,2065,2053,2041,2,2054,2037,2030,2,2021,2011,1998,2,2043,2044,2021,2
0.066,1983,1559,1634,2,2111,2129,2130,2,2117,2141,2148,2,3699,3852,3893,2,2033,2047,2055,2,2044,2065,2065,2,2076,2092,2097,2,2054,2058,2075,2,2117,2541,2466,2,1989,1971,1970,2,1983,1959,1952,2,401,248,207,2,2067,2053,2045,2,2056,2035,2035,2,2024,2008,2003,2,2046,2042,2025,2
0.067,2008,1580,1536,2,2108,2126,2126,2,2113,2138,2144,2,3689,3849,3890,2,2027,2044,2052,2,2037,2060,2062,2,2069,2086,2091,2,2047,2050,2070,2,2092,2520,2564,2,1992,1974,1974,2,1987,1962,1956,2,411,251,210,2,2073,2056,2048,2,2063,2040,2038,2,2031,2014,2009,2,2053,2050,2030,2
0.068,2001,1692,1436,2,2107,2123,2123,2,2112,2134,2141,2,3690,3840,3888,2,2025,2037,2048,2,2035,2051,2058,2,2066,2077,2090,2,2046,2045,2066,2,2099,2408,2664,2,1993,1977,1977,2,1988,1966,1959,2,410,260,212,2,2075,2063,2052,2,2065,2049,2042,2,2034,2023,2010,2,2054,2055,2034,2
0.069,1967,1764,1540,2,2107,2123,2121,2,2113,2134,2140,2,3692,3846,3887,2,2023,2039,2047,2,2033,2054,2056,2,2064,2079,2086,2,2041,2045,2063,2,2133,2336,2560,2,1993,1977,1979,2,1987,1966,1960,2,408,254,213,2,2077,2061,2053,2,2067,2046,2044,2,2036,2021,2014,2,2059,2055,2037,2
0.069,2037,1960,1540,2,2105,2122,2121,2,2110,2133,2140,2,3692,3847,3887,2,2023,2037,2047,2,2033,2052,2056,2,2064,2077,2086,2,2041,2044,2063,2,2063,2140,2560,2,1995,1978,1979,2,1990,1967,1960,2,408,253,213,2,2077,2063,2053,2,2067,2048,2044,2,2036,2023,2014,2,2059,2056,2037,2
0.071,2064,1960,1818,2,2105,2122,2121,2,2110,2133,2140,2,3692,3847,3888,2,2023,2037,2044,2,2032,2052,2054,2,2062,2077,2084,2,2041,2044,2060,2,2036,2140,2282,2,1995,1978,1979,2,1990,1967,1960,2,408,253,212,2,2077,2063,2056,2,2068,2048,2046,2,2038,2023,2016,2,2059,2056,2040,2
0.071,2064,2253,2152,2,2105,2126,2124,2,2110,2135,2142,2,3692,3848,3891,2,2023,2037,2046,2,2032,2051,2055,2,2062,2075,2084,2,2041,2043,2061,2,2036,1847,1948,2,1995,1974,1976,2,1990,1965,1958,2,408,252,209,2,2077,2063,2054,2,2068,2049,2045,2,2038,2025,2016,2,2059,2057,2039,2
0.073,2229,2424,2152,2,2109,2130,2124,2,2116,2138,2142,2,3702,3849,3891,2,2028,2038,2046,2,2037,2052,2055,2,2067,2076,2084,2,2043,2043,2061,2,1871,1676,1948,2,1991,1970,1976,2,1984,1962,1958,2,398,251,209,2,2072,2062,2054,2,2063,2048,2045,2,2033,2024,2016,2,2057,2057,2039,2
0.074,2380,2644,2539,2,2114,2135,2130,2,2121,2142,2147,2,3709,3859,3896,2,2033,2045,2050,2,2043,2060,2058,2,2072,2084,2087,2,2049,2050,2065,2,1720,1456,1561,2,1986,1965,1970,2,1979,1958,1953,2,391,241,204,2,2067,2055,2050,2,2057,2040,2042,2,2028,2016,2013,2,2051,2050,2035,2
0.075,2284,2641,2686,2,2115,2137,2135,2,2122,2144,2150,2,3704,3858,3898,2,2033,2046,2055,2,2041,2060,2063,2,2071,2084,2090,2,2048,2049,2069,2,1816,1459,1414,2,1985,1963,1965,2,1978,1956,1950,2,396,242,202,2,2067,2054,2045,2,2059,2040,2037,2,2029,2016,2010,2,2052,2051,2031,2
0.076,2338,2549,2823,2,2118,2137,2138,2,2125,2144,2153,2,3708,3851,3901,2,2036,2044,2056,2,2045,2065,2065,2,2075,2089,2096,2,2053,2056,2072,2,1762,1551,1277,2,1982,1963,1962,2,1975,1956,1947,2,392,249,199,2,2064,2056,2044,2,2055,2035,2035,2,2025,2011,2004,2,2047,2044,2028,2
0.077,2327,2533,2774,2,2121,2140,2140,2,2128,2147,2155,2,3712,3859,3902,2,2039,2050,2059,2,2049,2065,2068,2,2080,2089,2098,2,2058,2056,2075,2,1773,1567,1326,2,1979,1960,1960,2,1972,1953,1945,2,388,241,198,2,2061,2050,2041,2,2051,2035,2032,2,2020,2011,2002,2,2042,2044,2025,2
0.078,2327,2393,2652,2,2121,2141,2140,2,2128,2149,2155,2,3712,3860,3902,2,2039,2052,2060,2,2049,2067,2069,2,2080,2093,2099,2,2058,2060,2077,2,1773,1707,1448,2,1979,1959,1960,2,1972,1951,1945,2,388,240,198,2,2061,2048,2040,2,2051,2033,2031,2,2020,2007,2001,2,2042,2040,2023,2
0.079,2236,2333,2652,2,2121,2141,2140,2,2128,2149,2155,2,3710,3857,3902,2,2040,2051,2060,2,2050,2067,2069,2,2082,2092,2099,2,2059,2058,2077,2,1864,1767,1448,2,1979,1959,1960,2,1972,1951,1945,2,390,243,198,2,2060,2049,2040,2,2050,2033,2031,2,2018,2008,2001,2,2041,2042,2023,2
0.08,2210,2333,2380,2,2121,2141,2139,2,2128,2149,2155,2,3711,3857,3900,2,2041,2051,2061,2,2052,2067,2071,2,2084,2092,2104,2,2062,2058,2079,2,1890,1767,1720,2,1979,1959,1961,2,1972,1951,1945,2,389,243,200,2,2059,2049,2039,2,2048,2033,2029,2,2016,2008,1996,2,2038,2042,2021,2
0.081,2142,2165,2024,2,2120,2138,2135,2,2126,2147,2152,2,3702,3852,3896,2,2039,2049,2061,2,2048,2065,2071,2,2081,2091,2102,2,2059,2056,2078,2,1958,1935,2076,2,1980,1962,1965,2,1974,1953,1948,2,398,248,204,2,2061,2051,2039,2,2052,2035,2029,2,2019,2009,1998,2,2041,2044,2022,2
0.082,1958,2008,1741,2,2117,2132,2131,2,2123,2141,2150,2,3704,3840,3893,2,2038,2041,2057,2,2049,2056,2068,2,2082,2082,2102,2,2059,2053,2076,2,2142,2092,2359,2,1983,1968,1969,2,1977,1959,1950,2,396,260,207,2,2062,2059,2043,2,2051,2044,2032,2,2018,2018,1998,2,2041,2047,2024,2
0.083,1793,1745,1491,2,2112,2128,2126,2,2116,2139,2146,2,3699,3844,3889,2,2031,2043,2054,2,2041,2059,2064,2,2073,2085,2096,2,2049,2053,2072,2,2307,2355,2609,2,1988,1972,1974,2,1984,1961,1954,2,401,256,211,2,2069,2057,2046,2,2059,2041,2036,2,2027,2015,2004,2,2051,2047,2028,2
0.083,1823,1761,1491,2,2109,2124,2126,2,2116,2134,2146,2,3699,3842,3889,2,2031,2039,2054,2,2041,2055,2064,2,2073,2081,2096,2,2049,2048,2072,2,2277,2339,2609,2,1991,1976,1974,2,1984,1966,1954,2,401,258,211,2,2069,2061,2046,2,2059,2045,2036,2,2027,2019,2004,2,2051,2052,2028,2
0.084,1816,1761,1469,2,2107,2124,2121,2,2114,2134,2141,2,3695,3842,3886,2,2027,2039,2048,2,2037,2055,2057,2,2068,2081,2090,2,2047,2048,2065,2,2284,2339,2631,2,1993,1976,1979,2,1986,1966,1959,2,405,258,214,2,2073,2061,2052,2,2063,2045,2043,2,2032,2019,2010,2,2053,2052,2035,2
0.085,1816,1899,1589,2,2107,2122,2121,2,2114,2131,2140,2,3695,3840,3886,2,2027,2036,2047,2,2037,2052,2055,2,2068,2076,2086,2,2047,2045,2063,2,2284,2201,2511,2,1993,1978,1979,2,1986,1969,1960,2,405,260,214,2,2073,2064,2053,2,2063,2048,2045,2,2032,2024,2014,2,2053,2055,2037,2
0.087,1881,1964,1589,2,2105,2122,2121,2,2112,2131,2140,2,3696,3839,3886,2,2024,2034,2047,2,2033,2049,2055,2,2059,2073,2086,2,2038,2040,2063,2,2219,2136,2511,2,1995,1978,1979,2,1988,1969,1960,2,404,261,214,2,2076,2066,2053,2,2067,2051,2045,2,2041,2027,2014,2,2062,2060,2037,2
0.088,1916,2013,1740,2,2105,2123,2121,2,2113,2133,2140,2,3701,3846,3886,2,2026,2037,2046,2,2035,2053,2054,2,2062,2077,2083,2,2040,2044,2062,2,2184,2087,2360,2,1995,1977,1979,2,1987,1967,1960,2,399,254,214,2,2074,2063,2054,2,2065,2047,2046,2,2038,2023,2017,2,2060,2056,2038,2
0.089,1958,2143,2096,2,2104,2124,2125,2,2111,2133,2143,2,3693,3844,3890,2,2023,2036,2049,2,2031,2051,2056,2,2059,2075,2083,2,2037,2041,2062,2,2142,1957,2004,2,1996,1976,1975,2,1989,1967,1957,2,407,256,210,2,2077,2064,2051,2,2069,2049,2044,2,2041,2025,2017,2,2063,2059,2038,2
0.09,2054,2259,2374,2,2108,2127,2128,2,2115,2136,2145,2,3699,3840,3893,2,2027,2043,2049,2,2036,2057,2056,2,2064,2082,2087,2,2043,2049,2064,2,2046,1841,1726,2,1992,1973,1972,2,1985,1964,1955,2,401,260,207,2,2073,2057,2051,2,2064,2043,2044,2,2036,2018,2013,2,2057,2051,2036,2
0.091,2099,2467,2808,2,2112,2132,2135,2,2119,2141,2152,2,3701,3851,3899,2,2030,2043,2054,2,2039,2057,2062,2,2067,2082,2094,2,2047,2049,2070,2,2001,1633,1292,2,1988,1968,1965,2,1981,1959,1948,2,399,249,201,2,2070,2057,2046,2,2061,2043,2038,2,2033,2018,2006,2,2053,2051,2030,2
0.092,2099,2462,2807,2,2112,2138,2137,2,2119,2147,2154,2,3701,3857,3901,2,2030,2048,2057,2,2039,2062,2065,2,2067,2088,2096,2,2047,2056,2074,2,2001,1638,1293,2,1988,1962,1963,2,1981,1953,1946,2,399,243,199,2,2070,2052,2043,2,2061,2038,2035,2,2033,2012,2004,2,2053,2044,2026,2
0.093,2159,2364,2807,2,2117,2139,2137,2,2125,2148,2154,2,3707,3856,3901,2,2036,2048,2057,2,2046,2063,2065,2,2075,2088,2096,2,2054,2055,2074,2,1941,1736,1293,2,1983,1961,1963,2,1975,1952,1946,2,393,244,199,2,2064,2052,2043,2,2054,2037,2035,2,2025,2012,2004,2,2046,2045,2026,2
0.094,2123,2364,2551,2,2119,2139,2138,2,2127,2148,2156,2,3710,3856,3902,2,2038,2048,2059,2,2049,2063,2069,2,2079,2088,2103,2,2058,2055,2077,2,1977,1736,1549,2,1981,1961,1962,2,1973,1952,1944,2,390,244,198,2,2062,2052,2041,2,2051,2037,2031,2,2021,2012,1997,2,2042,2045,2023,2
0.095,2117,2224,2372,2,2119,2139,2138,2,2127,2148,2156,2,3704,3855,3901,2,2037,2048,2061,2,2046,2064,2071,2,2077,2089,2103,2,2055,2054,2078,2,1983,1876,1728,2,1981,1961,1962,2,1973,1952,1944,2,396,245,199,2,2063,2052,2039,2,2054,2036,2029,2,2023,2011,1997,2,2045,2046,2022,2
0.096,2068,2138,2264,2,2119,2137,2138,2,2127,2147,2156,2,3707,3849,3901,2,2039,2046,2060,2,2050,2061,2070,2,2082,2086,2105,2,2060,2052,2079,2,2032,1962,1836,2,1981,1963,1962,2,1973,1953,1944,2,393,251,199,2,2061,2054,2040,2,2050,2039,2030,2,2018,2014,1995,2,2040,2048,2021,2
0.097,1982,2031,2091,2,2120,2137,2137,2,2128,2148,2155,2,3705,3855,3900,2,2039,2051,2061,2,2051,2067,2071,2,2083,2093,2104,2,2060,2059,2080,2,2118,2069,2009,2,1980,1963,1963,2,1972,1952,1945,2,395,245,200,2,2061,2049,2039,2,2049,2033,2029,2,2017,2007,1996,2,2040,2041,2020,2
0.097,1976,1547,2091,2,2118,2132,2137,2,2125,2144,2155,2,3705,3851,3900,2,2039,2049,2061,2,2051,2066,2071,2,2083,2093,2104,2,2060,2059,2080,2,2124,2553,2009,2,1982,1968,1963,2,1975,1956,1945,2,395,249,200,2,2061,2051,2039,2,2049,2034,2029,2,2017,2007,1996,2,2040,2041,2020,2
0.098,1889,1547,1231,2,2114,2132,2127,2,2120,2144,2148,2,3699,3851,3892,2,2035,2049,2055,2,2046,2066,2065,2,2077,2093,2099,2,2056,2059,2074,2,2211,2553,2869,2,1986,1968,1973,2,1980,1956,1952,2,401,249,208,2,2065,2051,2045,2,2054,2034,2035,2,2023,2007,2001,2,2044,2041,2026,2
0.099,1889,1354,1059,2,2114,2125,2123,2,2120,2138,2144,2,3699,3844,3888,2,2035,2042,2052,2,2046,2058,2062,2,2077,2084,2094,2,2056,2051,2071,2,2211,2746,3041,2,1986,1975,1977,2,1980,1962,1956,2,401,256,212,2,2065,2058,2048,2,2054,2042,2038,2,2023,2016,2006,2,2044,2049,2029,2
0.101,1756,1435,1059,2,2107,2123,2123,2,2114,2135,2144,2,3695,3840,3888,2,2028,2038,2052,2,2038,2053,2062,2,2070,2078,2094,2,2048,2044,2071,2,2344,2665,3041,2,1993,1977,1977,2,1986,1965,1956,2,405,260,212,2,2072,2062,2048,2,2062,2047,2038,2,2030,2022,2006,2,2052,2056,2029,2
0.102,1734,1461,1124,2,2106,2122,2121,2,2113,2135,2141,2,3698,3846,3887,2,2028,2040,2049,2,2038,2056,2059,2,2069,2081,2089,2,2048,2047,2068,2,2366,2639,2976,2,1994,1978,1979,2,1987,1965,1959,2,402,254,213,2,2072,2060,2051,2,2062,2044,2041,2,2031,2019,2011,2,2052,2053,2032,2
0.103,1852,1604,1323,2,2104,2121,2121,2,2110,2133,2140,2,3689,3841,3886,2,2024,2035,2049,2,2032,2049,2057,2,2063,2074,2085,2,2042,2041,2064,2,2248,2496,2777,2,1996,1979,1979,2,1990,1967,1960,2,411,259,214,2,2076,2065,2051,2,2068,2051,2043,2,2037,2026,2015,2,2058,2059,2036,2
0.104,1882,1709,1436,2,2104,2121,2120,2,2110,2132,2139,2,3691,3835,3887,2,2024,2031,2046,2,2032,2043,2054,2,2062,2073,2085,2,2043,2040,2062,2,2218,2391,2664,2,1996,1979,1980,2,1990,1968,1961,2,409,265,213,2,2076,2069,2054,2,2068,2057,2046,2,2038,2027,2015,2,2057,2060,2038,2
0.105,1927,1799,1608,2,2107,2122,2121,2,2113,2133,2139,2,3698,3843,3887,2,2025,2035,2046,2,2033,2048,2054,2,2063,2073,2083,2,2042,2040,2061,2,2173,2301,2492,2,1993,1978,1979,2,1987,1967,1961,2,402,257,213,2,2075,2065,2054,2,2067,2052,2046,2,2037,2027,2017,2,2058,2060,2039,2
0.106,1981,2252,2067,2,2107,2129,2127,2,2113,2138,2143,2,3698,3850,3892,2,2025,2039,2048,2,2033,2053,2056,2,2063,2078,2084,2,2042,2045,2064,2,2119,1848,2033,2,1993,1971,1973,2,1987,1962,1957,2,402,250,208,2,2075,2061,2052,2,2067,2047,2044,2,2037,2022,2016,2,2058,2055,2036,2
0.107,2183,2362,2067,2,2113,2133,2127,2,2119,2142,2143,2,3703,3853,3892,2,2031,2042,2048,2,2040,2055,2056,2,2070,2080,2084,2,2048,2045,2064,2,1917,1738,2033,2,1987,1967,1973,2,1981,1958,1957,2,397,247,208,2,2069,2058,2052,2,2060,2045,2044,2,2030,2020,2016,2,2052,2055,2036,2
0.108,2232,2362,2564,2,2116,2133,2135,2,2122,2142,2151,2,3708,3853,3899,2,2035,2042,2054,2,2044,2055,2063,2,2074,2080,2093,2,2052,2045,2070,2,1868,1738,1536,2,1984,1967,1965,2,1978,1958,1949,2,392,247,201,2,2065,2058,2046,2,2056,2045,2037,2,2026,2020,2007,2,2048,2055,2030,2
0.109,2208,2354,2596,2,2117,2135,2137,2,2123,2144,2153,2,3702,3852,3900,2,2034,2043,2058,2,2042,2057,2067,2,2073,2082,2096,2,2051,2047,2073,2,1892,1746,1504,2,1983,1965,1963,2,1977,1956,1947,2,398,248,200,2,2066,2057,2042,2,2058,2043,2033,2,2027,2018,2004,2,2049,2053,2027,2
0.11,2258,2246,2645,2,2120,2136,2139,2,2126,2145,2155,2,3708,3848,3901,2,2038,2042,2058,2,2048,2056,2067,2,2079,2081,2100,2,2057,2048,2075,2,1842,1854,1455,2,1980,1964,1961,2,1974,1955,1945,2,392,252,199,2,2062,2058,2042,2,2052,2044,2033,2,2021,2019,2000,2,2043,2052,2025,2
0.111,2208,2189,2513,2,2121,2138,2140,2,2129,2148,2156,2,3717,3857,3901,2,2040,2049,2059,2,2050,2064,2069,2,2082,2090,2100,2,2059,2057,2077,2,1892,1911,1587,2,1979,1962,1960,2,1971,1952,1944,2,383,243,199,2,2060,2051,2041,2,2050,2036,2031,2,2018,2010,2000,2,2041,2043,2023,2
0.111,2187,2032,2513,2,2121,2139,2140,2,2127,2149,2156,2,3708,3859,3901,2,2040,2052,2059,2,2050,2069,2069,2,2082,2095,2100,2,2059,2062,2077,2,1913,2068,1587,2,1979,1961,1960,2,1973,1951,1944,2,392,241,199,2,2060,2048,2041,2,2050,2031,2031,2,2018,2005,2000,2,2041,2038,2023,2
0.112,2157,2032,2220,2,2121,2139,2139,2,2127,2149,2156,2,3706,3859,3901,2,2040,2052,2060,2,2050,2069,2071,2,2081,2095,2103,2,2060,2062,2079,2,1943,2068,1880,2,1979,1961,1961,2,1973,1951,1944,2,394,241,199,2,2060,2048,2040,2,2050,2031,2029,2,2019,2005,1997,2,2040,2038,2021,2
0.113,2157,1919,2046,2,2121,2137,2137,2,2127,2148,2155,2,3706,3856,3899,2,2040,2052,2060,2,2050,2069,2071,2,2081,2096,2103,2,2060,2063,2080,2,1943,2181,2054,2,1979,1963,1963,2,1973,1952,1945,2,394,244,201,2,2060,2048,2040,2,2050,2031,2029,2,2019,2004,1997,2,2040,2037,2020,2
0.114,2011,1721,2046,2,2117,2132,2137,2,2124,2144,2155,2,3703,3849,3899,2,2038,2048,2060,2,2049,2065,2071,2,2081,2091,2103,2,2058,2057,2080,2,2089,2379,2054,2,1983,1968,1963,2,1976,1956,1945,2,397,251,201,2,2062,2052,2040,2,2051,2035,2029,2,2019,2009,1997,2,2042,2043,2020,2
0.116,1878,1462,1622,2,2113,2129,2131,2,2120,2142,2150,2,3702,3852,3894,2,2035,2049,2056,2,2047,2067,2067,2,2079,2093,2098,2,2056,2060,2077,2,2222,2638,2478,2,1987,1971,1969,2,1980,1958,1950,2,398,248,206,2,2065,2051,2044,2,2053,2033,2033,2,2021,2007,2002,2,2044,2040,2023,2
0.117,1874,1477,1466,2,2110,2126,2126,2,2116,2139,2145,2,3692,3846,3890,2,2030,2043,2054,2,2039,2060,2064,2,2072,2085,2093,2,2048,2052,2072,2,2226,2623,2634,2,1990,1974,1974,2,1984,1961,1955,2,408,254,210,2,2070,2057,2046,2,2061,2040,2036,2,2028,2015,2007,2,2052,2048,2028,2
0.118,1847,1582,1322,2,2108,2123,2122,2,2114,2135,2142,2,3692,3837,3888,2,2028,2036,2049,2,2037,2051,2060,2,2069,2079,2092,2,2047,2047,2068,2,2253,2518,2778,2,1992,1977,1978,2,1986,1965,1958,2,408,263,212,2,2072,2064,2051,2,2063,2049,2040,2,2031,2021,2008,2,2053,2053,2032,2
0.119,1810,1636,1408,2,2105,2123,2121,2,2112,2134,2140,2,3693,3842,3887,2,2025,2038,2048,2,2034,2054,2057,2,2066,2079,2088,2,2042,2047,2065,2,2290,2464,2692,2,1995,1977,1979,2,1988,1966,1960,2,407,258,213,2,2075,2062,2052,2,2066,2046,2043,2,2034,2021,2012,2,2058,2053,2035,2
0.12,1870,1843,1569,2,2105,2123,2121,2,2112,2132,2140,2,3693,3843,3887,2,2025,2037,2046,2,2034,2052,2055,2,2066,2077,2085,2,2042,2044,2064,2,2230,2257,2531,2,1995,1977,1979,2,1988,1968,1960,2,407,257,213,2,2075,2063,2054,2,2066,2048,2045,2,2034,2023,2015,2,2058,2056,2036,2
0.121,1928,1937,1569,2,2103,2123,2121,2,2111,2132,2140,2,3693,3843,3887,2,2024,2037,2046,2,2033,2051,2055,2,2063,2074,2085,2,2040,2040,2064,2,2172,2163,2531,2,1997,1977,1979,2,1989,1968,1960,2,407,257,213,2,2076,2063,2054,2,2067,2049,2045,2,2037,2026,2015,2,2060,2060,2036,2
0.122,2034,1937,2029,2,2106,2123,2124,2,2113,2132,2141,2,3697,3843,3889,2,2026,2037,2046,2,2035,2051,2055,2,2064,2074,2085,2,2043,2040,2061,2,2066,2163,2071,2,1994,1977,1976,2,1987,1968,1959,2,403,257,211,2,2074,2063,2054,2,2065,2049,2045,2,2036,2026,2015,2,2057,2060,2039,2
0.123,1992,2194,2414,2,2107,2127,2129,2,2113,2135,2145,2,3692,3846,3893,2,2025,2039,2050,2,2032,2053,2058,2,2062,2076,2087,2,2040,2040,2064,2,2108,1906,1686,2,1993,1973,1971,2,1987,1965,1955,2,408,254,207,2,2075,2061,2050,2,2068,2047,2042,2,2038,2024,2013,2,2060,2060,2036,2
0.125,2171,2285,2703,2,2112,2130,2133,2,2118,2138,2148,2,3703,3846,3897,2,2031,2040,2051,2,2039,2053,2059,2,2069,2077,2091,2,2047,2042,2066,2,1929,1815,1397,2,1988,1970,1967,2,1982,1962,1952,2,397,254,203,2,2069,2060,2049,2,2061,2047,2041,2,2031,2023,2009,2,2053,2058,2034,2
0.126,2312,2453,2817,2,2116,2135,2136,2,2123,2143,2151,2,3712,3856,3900,2,2036,2047,2055,2,2047,2061,2063,2,2076,2086,2093,2,2053,2051,2070,2,1788,1647,1283,2,1984,1965,1964,2,1977,1957,1949,2,388,244,200,2,2064,2053,2045,2,2053,2039,2037,2,2024,2014,2007,2,2047,2049,2030,2
0.126,2231,2417,2751,2,2117,2137,2140,2,2124,2145,2155,2,3707,3854,3901,2,2036,2046,2059,2,2045,2061,2068,2,2076,2086,2100,2,2053,2051,2075,2,1869,1683,1349,2,1983,1963,1960,2,1976,1955,1945,2,393,246,199,2,2064,2054,2041,2,2055,2039,2032,2,2024,2014,2000,2,2047,2049,2025,2
0.126,2169,2417,2748,2,2120,2137,2140,2,2126,2145,2155,2,3706,3854,3901,2,2039,2046,2059,2,2048,2061,2068,2,2080,2086,2100,2,2056,2051,2075,2,1931,1683,1352,2,1980,1963,1960,2,1974,1955,1945,2,394,246,199,2,2061,2054,2041,2,2052,2039,2032,2,2020,2014,2000,2,2044,2049,2025,2
0.127,2169,2262,2606,2,2120,2139,2140,2,2126,2148,2156,2,3706,3856,3901,2,2039,2050,2059,2,2048,2066,2069,2,2080,2092,2100,2,2056,2058,2078,2,1931,1838,1494,2,1980,1961,1960,2,1974,1952,1944,2,394,244,199,2,2061,2050,2041,2,2052,2034,2031,2,2020,2008,2000,2,2044,2042,2022,2
0.128,2078,2181,2606,2,2121,2138,2140,2,2127,2148,2156,2,3706,3854,3901,2,2040,2050,2059,2,2050,2066,2069,2,2083,2092,2100,2,2059,2056,2078,2,2022,1919,1494,2,1979,1962,1960,2,1973,1952,1944,2,394,246,199,2,2060,2050,2041,2,2050,2034,2031,2,2017,2008,2000,2,2041,2044,2022,2
0.129,2035,2112,2415,2,2120,2138,2139,2,2127,2149,2155,2,3708,3860,3900,2,2041,2054,2060,2,2053,2072,2070,2,2085,2098,2100,2,2062,2063,2080,2,2065,1988,1685,2,1980,1962,1961,2,1973,1951,1945,2,392,240,200,2,2059,2046,2040,2,2047,2028,2030,2,2015,2002,2000,2,2038,2037,2020,2
0.13,1975,2010,2093,2,2118,2137,2136,2,2125,2148,2153,2,3701,3855,3897,2,2039,2052,2061,2,2050,2069,2071,2,2082,2095,2100,2,2058,2060,2080,2,2125,2090,2007,2,1982,1963,1964,2,1975,1952,1947,2,399,245,203,2,2061,2048,2039,2,2050,2031,2029,2,2018,2005,2000,2,2042,2040,2020,2
0.132,1837,1863,1829,2,2115,2132,2133,2,2123,2142,2152,2,3703,3843,3895,2,2039,2044,2058,2,2050,2060,2069,2,2082,2088,2102,2,2059,2055,2079,2,2263,2237,2271,2,1985,1968,1967,2,1977,1958,1948,2,397,257,205,2,2061,2056,2042,2,2050,2040,2031,2,2018,2012,1998,2,2041,2045,2021,2
0.133,1638,1597,1495,2,2108,2129,2128,2,2116,2140,2147,2,3696,3846,3891,2,2032,2045,2055,2,2042,2063,2066,2,2074,2088,2097,2,2051,2055,2075,2,2462,2503,2605,2,1992,1971,1972,2,1984,1960,1953,2,404,254,209,2,2068,2055,2045,2,2058,2037,2034,2,2026,2012,2003,2,2049,2045,2025,2
0.134,1657,1538,1387,2,2108,2123,2124,2,2116,2134,2144,2,3696,3843,3888,2,2032,2040,2051,2,2042,2057,2062,2,2074,2083,2092,2,2051,2050,2071,2,2443,2562,2713,2,1992,1977,1976,2,1984,1966,1956,2,404,257,212,2,2068,2060,2049,2,2058,2043,2038,2,2026,2017,2008,2,2049,2050,2029,2
0.135,1650,1625,1387,2,2105,2123,2124,2,2111,2133,2144,2,3691,3841,3888,2,2026,2038,2051,2,2036,2054,2062,2,2068,2078,2092,2,2044,2044,2071,2,2450,2475,2713,2,1995,1977,1976,2,1989,1967,1956,2,409,259,212,2,2074,2062,2049,2,2064,2046,2038,2,2032,2022,2008,2,2056,2056,2029,2
0.136,1682,1625,1515,2,2104,2123,2121,2,2111,2133,2141,2,3693,3841,3886,2,2026,2038,2047,2,2035,2054,2056,2,2067,2078,2088,2,2044,2044,2064,2,2418,2475,2585,2,1996,1977,1979,2,1989,1967,1959,2,407,259,214,2,2074,2062,2053,2,2065,2046,2044,2,2033,2022,2012,2,2056,2056,2036,2
0.137,1731,1705,1618,2,2103,2122,2121,2,2109,2132,2141,2,3685,3839,3886,2,2022,2036,2047,2,2030,2051,2055,2,2062,2074,2085,2,2039,2039,2062,2,2369,2395,2482,2,1997,1978,1979,2,1991,1968,1959,2,415,261,214,2,2078,2064,2053,2,2070,2049,2045,2,2038,2026,2015,2,2061,2061,2038,2
0.138,1747,1838,1683,2,2103,2122,2120,2,2109,2131,2140,2,3689,3836,3886,2,2023,2033,2044,2,2032,2047,2053,2,2063,2070,2086,2,2041,2036,2061,2,2353,2262,2417,2,1997,1978,1980,2,1991,1969,1960,2,411,264,214,2,2077,2067,2056,2,2068,2053,2047,2,2037,2030,2014,2,2059,2064,2039,2
0.139,1933,1995,1975,2,2107,2124,2123,2,2113,2134,2141,2,3701,3845,3888,2,2028,2037,2046,2,2038,2052,2055,2,2066,2075,2085,2,2043,2041,2062,2,2167,2105,2125,2,1993,1976,1977,2,1987,1966,1959,2,399,255,212,2,2072,2063,2054,2,2062,2048,2045,2,2034,2025,2015,2,2057,2059,2038,2
0.14,1909,2173,2329,2,2108,2128,2133,2,2114,2137,2149,2,3697,3845,3896,2,2028,2038,2052,2,2036,2052,2061,2,2066,2075,2092,2,2043,2041,2068,2,2191,1927,1771,2,1992,1972,1967,2,1986,1963,1951,2,403,255,204,2,2072,2062,2048,2,2064,2048,2039,2,2034,2025,2008,2,2057,2059,2032,2
0.14,2021,2173,2609,2,2114,2128,2133,2,2121,2137,2149,2,3702,3845,3896,2,2033,2038,2052,2,2041,2052,2061,2,2072,2075,2092,2,2049,2041,2068,2,2079,1927,1491,2,1986,1972,1967,2,1979,1963,1951,2,398,255,204,2,2067,2062,2048,2,2059,2048,2039,2,2028,2025,2008,2,2051,2059,2032,2
0.141,2021,2272,2666,2,2114,2135,2136,2,2121,2144,2152,2,3702,3854,3898,2,2033,2045,2055,2,2041,2061,2064,2,2072,2084,2095,2,2049,2051,2072,2,2079,1828,1434,2,1986,1965,1964,2,1979,1956,1948,2,398,246,202,2,2067,2055,2045,2,2059,2039,2036,2,2028,2016,2005,2,2051,2049,2028,2
0.142,2075,2193,2666,2,2118,2137,2136,2,2125,2147,2152,2,3707,3855,3898,2,2038,2047,2055,2,2047,2062,2064,2,2078,2085,2095,2,2054,2051,2072,2,2025,1907,1434,2,1982,1963,1964,2,1975,1953,1948,2,393,245,202,2,2062,2053,2045,2,2053,2038,2036,2,2022,2015,2005,2,2046,2049,2028,2
0.143,2036,2154,2541,2,2119,2139,2138,2,2127,2149,2154,2,3710,3862,3899,2,2041,2052,2058,2,2050,2069,2067,2,2081,2093,2097,2,2058,2060,2075,2,2064,1946,1559,2,1981,1961,1962,2,1973,1951,1946,2,390,238,201,2,2059,2048,2042,2,2050,2031,2033,2,2019,2007,2003,2,2042,2040,2025,2
0.144,2023,2043,2341,2,2119,2138,2138,2,2126,2149,2155,2,3703,3858,3899,2,2039,2052,2060,2,2047,2068,2070,2,2078,2092,2098,2,2055,2058,2077,2,2077,2057,1759,2,1981,1962,1962,2,1974,1951,1945,2,397,242,201,2,2061,2048,2040,2,2053,2032,2030,2,2022,2008,2002,2,2045,2042,2023,2
0.146,1974,1959,2222,2,2120,2137,2138,2,2127,2147,2155,2,3706,3849,3899,2,2041,2048,2059,2,2050,2063,2070,2,2082,2089,2102,2,2059,2061,2078,2,2126,2141,1878,2,1980,1963,1962,2,1973,1953,1945,2,394,251,201,2,2059,2052,2041,2,2050,2037,2030,2,2018,2011,1998,2,2041,2039,2022,2
0.147,1871,1864,2033,2,2120,2137,2137,2,2126,2148,2155,2,3707,3856,3898,2,2041,2052,2060,2,2052,2069,2071,2,2084,2095,2102,2,2060,2061,2079,2,2229,2236,2067,2,1980,1963,1963,2,1974,1952,1945,2,393,244,202,2,2059,2048,2040,2,2048,2031,2029,2,2016,2005,1998,2,2040,2039,2021,2
0.148,1862,1521,1592,2,2119,2133,2132,2,2126,2146,2152,2,3707,3854,3896,2,2041,2052,2058,2,2052,2070,2069,2,2084,2097,2100,2,2060,2062,2079,2,2238,2579,2508,2,1981,1967,1968,2,1974,1954,1948,2,393,246,204,2,2059,2048,2042,2,2048,2030,2031,2,2016,2003,2000,2,2040,2038,2021,2
0.148,1689,1377,1592,2,2111,2129,2132,2,2118,2142,2152,2,3697,3849,3896,2,2034,2047,2058,2,2046,2065,2069,2,2079,2091,2100,2,2053,2055,2079,2,2411,2723,2508,2,1989,1971,1968,2,1982,1958,1948,2,403,251,204,2,2066,2053,2042,2,2054,2035,2031,2,2021,2009,2000,2,2047,2045,2021,2
0.15,1590,1377,1034,2,2108,2129,2123,2,2115,2142,2144,2,3696,3849,3887,2,2031,2047,2051,2,2043,2065,2061,2,2075,2091,2094,2,2051,2055,2070,2,2510,2723,3066,2,1992,1971,1977,2,1985,1958,1956,2,404,251,213,2,2069,2053,2049,2,2057,2035,2039,2,2025,2009,2006,2,2049,2045,2030,2
0.151,1692,1390,1048,2,2106,2126,2120,2,2112,2139,2141,2,3687,3845,3884,2,2026,2043,2049,2,2036,2060,2058,2,2069,2085,2089,2,2044,2048,2067,2,2408,2710,3052,2,1994,1974,1980,2,1988,1961,1959,2,413,255,216,2,2074,2057,2051,2,2064,2040,2042,2,2031,2015,2011,2,2056,2052,2033,2
0.152,1636,1483,1029,2,2105,2123,2118,2,2111,2135,2139,2,3691,3838,3884,2,2026,2037,2046,2,2037,2052,2055,2,2070,2077,2089,2,2045,2042,2064,2,2464,2617,3071,2,1995,1977,1982,2,1989,1965,1961,2,409,262,216,2,2074,2063,2054,2,2063,2048,2045,2,2030,2023,2011,2,2055,2058,2036,2
0.153,1620,1535,1176,2,2105,2123,2118,2,2112,2135,2139,2,3698,3844,3884,2,2027,2039,2046,2,2040,2055,2055,2,2066,2080,2086,2,2041,2045,2062,2,2480,2565,2924,2,1995,1977,1982,2,1988,1965,1961,2,402,256,216,2,2073,2061,2054,2,2060,2045,2045,2,2034,2020,2014,2,2059,2055,2038,2
0.154,1697,1613,1357,2,2104,2122,2119,2,2110,2133,2138,2,3691,3840,3885,2,2024,2035,2045,2,2034,2050,2053,2,2066,2075,2084,2,2041,2040,2060,2,2403,2487,2743,2,1996,1978,1981,2,1990,1967,1962,2,409,260,215,2,2076,2065,2055,2,2066,2050,2047,2,2034,2025,2016,2,2059,2060,2040,2
0.154,1796,1613,1468,2,2105,2122,2119,2,2112,2133,2138,2,3691,3840,3885,2,2024,2035,2045,2,2031,2050,2053,2,2063,2075,2084,2,2039,2040,2060,2,2304,2487,2632,2,1995,1978,1981,2,1988,1967,1962,2,409,260,215,2,2076,2065,2055,2,2069,2050,2047,2,2037,2025,2016,2,2061,2060,2040,2
0.155,1796,2004,1874,2,2105,2126,2123,2,2112,2136,2141,2,3691,3847,3889,2,2024,2037,2047,2,2031,2052,2055,2,2063,2077,2085,2,2039,2043,2063,2,2304,2096,2226,2,1995,1974,1977,2,1988,1964,1959,2,409,253,211,2,2076,2063,2053,2,2069,2048,2045,2,2037,2023,2015,2,2061,2057,2037,2
0.156,2008,2172,1874,2,2110,2131,2123,2,2118,2140,2141,2,3701,3849,3889,2,2030,2040,2047,2,2038,2055,2055,2,2069,2079,2085,2,2045,2044,2063,2,2092,1928,2226,2,1990,1969,1977,2,1982,1960,1959,2,399,251,211,2,2070,2060,2053,2,2062,2045,2045,2,2031,2021,2015,2,2055,2056,2037,2
0.157,2100,2172,2463,2,2114,2131,2133,2,2122,2140,2149,2,3707,3849,3897,2,2034,2040,2054,2,2043,2055,2063,2,2074,2079,2095,2,2051,2044,2070,2,2000,1928,1637,2,1986,1969,1967,2,1978,1960,1951,2,393,251,203,2,2066,2060,2046,2,2057,2045,2037,2,2026,2021,2005,2,2049,2056,2030,2
0.158,2060,2205,2514,2,2115,2134,2136,2,2123,2143,2152,2,3702,3850,3899,2,2034,2043,2058,2,2041,2058,2066,2,2073,2082,2096,2,2050,2046,2073,2,2040,1895,1586,2,1985,1966,1964,2,1977,1957,1948,2,398,250,201,2,2066,2057,2042,2,2059,2042,2034,2,2027,2018,2004,2,2050,2054,2027,2
0.159,2148,2120,2580,2,2118,2135,2139,2,2126,2144,2154,2,3709,3845,3900,2,2038,2042,2058,2,2048,2056,2067,2,2081,2081,2100,2,2057,2055,2075,2,1952,1980,1520,2,1982,1965,1961,2,1974,1956,1946,2,391,255,200,2,2062,2058,2042,2,2052,2044,2033,2,2019,2019,2000,2,2043,2045,2025,2
0.16,2124,2092,2460,2,2120,2137,2139,2,2128,2147,2155,2,3710,3854,3900,2,2040,2048,2060,2,2050,2064,2069,2,2084,2090,2101,2,2059,2055,2078,2,1976,2008,1640,2,1980,1963,1961,2,1972,1953,1945,2,390,246,200,2,2060,2052,2040,2,2050,2036,2031,2,2016,2010,1999,2,2041,2045,2022,2
0.161,2090,1948,2294,2,2120,2138,2139,2,2128,2149,2155,2,3710,3857,3900,2,2040,2052,2060,2,2050,2068,2070,2,2084,2094,2101,2,2059,2060,2080,2,2010,2152,1806,2,1980,1962,1961,2,1972,1951,1945,2,390,243,200,2,2060,2048,2040,2,2050,2032,2030,2,2016,2006,1999,2,2041,2040,2020,2
0.162,2006,1881,2294,2,2120,2138,2139,2,2128,2149,2155,2,3707,3856,3900,2,2040,2052,2060,2,2051,2068,2070,2,2084,2094,2101,2,2060,2058,2080,2,2094,2219,1806,2,1980,1962,1961,2,1972,1951,1945,2,393,244,200,2,2060,2048,2040,2,2049,2032,2030,2,2016,2006,1999,2,2040,2042,2020,2
0.164,1960,1881,1941,2,2119,2138,2137,2,2128,2149,2155,2,3707,3856,3898,2,2041,2052,2061,2,2052,2068,2072,2,2084,2094,2104,2,2062,2058,2080,2,2140,2219,2159,2,1981,1962,1963,2,1972,1951,1945,2,393,244,202,2,2059,2048,2039,2,2048,2032,2028,2,2016,2006,1996,2,2038,2042,2020,2
0.165,1922,1659,1514,2,2117,2134,2131,2,2125,2146,2151,2,3698,3852,3894,2,2038,2050,2059,2,2047,2066,2069,2,2080,2092,2100,2,2057,2055,2077,2,2178,2441,2586,2,1983,1966,1969,2,1975,1954,1949,2,402,248,206,2,2062,2050,2041,2,2053,2034,2031,2,2020,2008,2000,2,2043,2045,2023,2
0.166,1790,1536,1189,2,2113,2128,2127,2,2121,2140,2147,2,3696,3842,3890,2,2035,2042,2054,2,2045,2058,2065,2,2078,2084,2100,2,2056,2049,2074,2,2310,2564,2911,2,1987,1972,1973,2,1979,1960,1953,2,404,258,210,2,2065,2058,2046,2,2055,2042,2035,2,2022,2016,2000,2,2044,2051,2026,2
0.167,1606,1343,1027,2,2110,2125,2124,2,2118,2138,2144,2,3700,3846,3887,2,2033,2043,2052,2,2045,2060,2062,2,2071,2086,2094,2,2048,2052,2070,2,2494,2757,3073,2,1990,1975,1976,2,1982,1962,1956,2,400,254,213,2,2067,2057,2048,2,2055,2040,2038,2,2029,2014,2006,2,2052,2048,2030,2
0.168,1675,1415,1121,2,2107,2123,2120,2,2114,2135,2140,2,3691,3840,3884,2,2028,2038,2047,2,2038,2053,2056,2,2071,2079,2088,2,2048,2045,2064,2,2425,2685,2979,2,1993,1977,1980,2,1986,1965,1960,2,409,260,216,2,2072,2062,2053,2,2062,2047,2044,2,2029,2021,2012,2,2052,2055,2036,2
0.168,1703,1415,1133,2,2105,2123,2120,2,2112,2135,2140,2,3688,3840,3884,2,2025,2038,2047,2,2033,2053,2056,2,2065,2079,2088,2,2042,2045,2064,2,2397,2685,2967,2,1995,1977,1980,2,1988,1965,1960,2,412,260,216,2,2075,2062,2053,2,2067,2047,2044,2,2035,2021,2012,2,2058,2055,2036,2
0.169,1703,1670,1313,2,2105,2122,2120,2,2112,2134,2139,2,3688,3841,3884,2,2025,2036,2046,2,2033,2051,2054,2,2065,2076,2085,2,2042,2043,2063,2,2397,2430,2787,2,1995,1978,1980,2,1988,1966,1961,2,412,259,216,2,2075,2064,2054,2,2067,2049,2046,2,2035,2024,2015,2,2058,2057,2037,2
0.17,1750,1787,1313,2,2104,2122,2120,2,2110,2133,2139,2,3690,3840,3884,2,2024,2035,2046,2,2032,2050,2054,2,2064,2073,2085,2,2040,2040,2063,2,2350,2313,2787,2,1996,1978,1980,2,1990,1967,1961,2,410,260,216,2,2076,2065,2054,2,2068,2050,2046,2,2036,2027,2015,2,2060,2060,2037,2
0.171,1837,1787,1715,2,2105,2122,2121,2,2112,2133,2139,2,3696,3840,3887,2,2026,2035,2045,2,2035,2050,2053,2,2065,2073,2085,2,2043,2040,2061,2,2263,2313,2385,2,1995,1978,1979,2,1988,1967,1961,2,404,260,213,2,2074,2065,2055,2,2065,2050,2047,2,2035,2027,2015,2,2057,2060,2039,2
0.172,1815,2011,2132,2,2105,2125,2126,2,2112,2135,2143,2,3691,3840,3890,2,2025,2035,2049,2,2032,2049,2056,2,2062,2072,2086,2,2040,2039,2063,2,2285,2089,1968,2,1995,1975,1974,2,1988,1965,1957,2,409,260,210,2,2075,2065,2051,2,2068,2051,2044,2,2038,2028,2014,2,2060,2061,2037,2
0.174,2010,2137,2441,2,2110,2129,2129,2,2117,2138,2146,2,3702,3840,3894,2,2031,2036,2050,2,2040,2049,2058,2,2070,2072,2090,2,2048,2040,2065,2,2090,1963,1659,2,1990,1971,1971,2,1983,1962,1954,2,398,260,206,2,2069,2064,2050,2,2060,2051,2042,2,2030,2028,2010,2,2052,2060,2035,2
0.175,2209,2351,2630,2,2115,2134,2134,2,2123,2143,2149,2,3708,3851,3897,2,2036,2043,2054,2,2045,2058,2061,2,2076,2081,2092,2,2053,2049,2069,2,1891,1749,1470,2,1985,1966,1966,2,1977,1957,1951,2,392,249,203,2,2064,2057,2046,2,2055,2042,2039,2,2024,2019,2008,2,2047,2051,2031,2
0.175,2109,2378,2655,2,2115,2138,2137,2,2123,2148,2152,2,3708,3858,3899,2,2036,2049,2057,2,2045,2066,2065,2,2076,2090,2095,2,2053,2057,2073,2,1991,1722,1445,2,1985,1962,1963,2,1977,1952,1948,2,392,242,201,2,2064,2051,2043,2,2055,2034,2035,2,2024,2010,2005,2,2047,2043,2027,2
0.176,2064,2291,2655,2,2118,2139,2137,2,2126,2149,2152,2,3708,3858,3899,2,2040,2050,2057,2,2049,2067,2065,2,2080,2091,2095,2,2056,2057,2073,2,2036,1809,1445,2,1982,1961,1963,2,1974,1951,1948,2,392,242,201,2,2060,2050,2043,2,2051,2033,2035,2,2020,2009,2005,2,2044,2043,2027,2
0.177,2045,2291,2456,2,2120,2139,2139,2,2127,2149,2154,2,3709,3858,3900,2,2041,2050,2060,2,2050,2067,2069,2,2082,2091,2101,2,2059,2057,2077,2,2055,1809,1644,2,1980,1961,1961,2,1973,1951,1946,2,391,242,200,2,2059,2050,2040,2,2050,2033,2031,2,2018,2009,1999,2,2041,2043,2023,2
0.178,1965,2164,2300,2,2120,2138,2138,2,2126,2149,2155,2,3701,3856,3900,2,2039,2051,2061,2,2047,2068,2071,2,2079,2092,2101,2,2056,2056,2078,2,2135,1936,1800,2,1980,1962,1962,2,1974,1951,1945,2,399,244,200,2,2061,2049,2039,2,2053,2032,2029,2,2021,2008,1999,2,2044,2044,2022,2
0.18,1919,2068,2200,2,2120,2136,2138,2,2126,2147,2155,2,3704,3850,3900,2,2040,2048,2060,2,2050,2065,2071,2,2082,2090,2104,2,2060,2055,2079,2,2181,2032,1900,2,1980,1964,1962,2,1974,1953,1945,2,396,250,200,2,2060,2052,2040,2,2050,2035,2029,2,2018,2010,1996,2,2040,2045,2021,2
0.181,1862,1972,2037,2,2119,2137,2137,2,2126,2148,2154,2,3710,3856,3898,2,2042,2052,2060,2,2054,2070,2071,2,2081,2096,2103,2,2058,2061,2081,2,2238,2128,2063,2,1981,1963,1963,2,1974,1952,1946,2,390,244,202,2,2058,2048,2040,2,2046,2030,2029,2,2019,2004,1997,2,2042,2039,2019,2
0.182,1822,1758,1616,2,2116,2133,2127,2,2122,2144,2147,2,3699,3848,3890,2,2038,2047,2054,2,2048,2064,2065,2,2081,2090,2098,2,2058,2055,2073,2,2278,2342,2484,2,1984,1967,1973,2,1978,1956,1953,2,401,252,210,2,2062,2053,2046,2,2052,2036,2035,2,2019,2010,2002,2,2042,2045,2027,2
0.182,1665,1758,1302,2,2109,2133,2127,2,2115,2144,2147,2,3690,3848,3890,2,2031,2047,2054,2,2040,2064,2065,2,2073,2090,2098,2,2050,2055,2073,2,2435,2342,2798,2,1991,1967,1973,2,1985,1956,1953,2,410,252,210,2,2069,2053,2046,2,2060,2036,2035,2,2027,2010,2002,2,2050,2045,2027,2
0.183,1665,1461,1156,2,2109,2125,2123,2,2115,2137,2144,2,3690,3843,3887,2,2031,2041,2051,2,2040,2057,2061,2,2073,2083,2093,2,2050,2049,2070,2,2435,2639,2944,2,1991,1975,1977,2,1985,1963,1956,2,410,257,213,2,2069,2059,2049,2,2060,2043,2039,2,2027,2017,2007,2,2050,2051,2030,2
0.184,1578,1495,1156,2,2105,2124,2123,2,2111,2135,2144,2,3688,3840,3887,2,2026,2037,2051,2,2036,2053,2061,2,2068,2078,2093,2,2044,2043,2070,2,2522,2605,2944,2,1995,1976,1977,2,1989,1965,1956,2,412,260,213,2,2074,2063,2049,2,2064,2047,2039,2,2032,2022,2007,2,2056,2057,2030,2
0.185,1574,1496,1208,2,2104,2123,2121,2,2111,2134,2142,2,3692,3846,3886,2,2026,2040,2049,2,2036,2056,2058,2,2068,2081,2089,2,2045,2047,2067,2,2526,2604,2892,2,1996,1977,1979,2,1989,1966,1958,2,408,254,214,2,2074,2060,2051,2,2064,2044,2042,2,2032,2019,2011,2,2055,2053,2033,2
0.186,1649,1568,1342,2,2103,2122,2121,2,2110,2133,2141,2,3685,3842,3886,2,2023,2037,2049,2,2030,2053,2057,2,2062,2077,2086,2,2039,2042,2064,2,2451,2532,2758,2,1997,1978,1979,2,1990,1967,1959,2,415,258,214,2,2077,2063,2051,2,2070,2047,2043,2,2038,2023,2014,2,2061,2058,2036,2
0.187,1666,1667,1423,2,2103,2121,2120,2,2110,2131,2140,2,3690,3836,3887,2,2024,2032,2046,2,2032,2047,2054,2,2064,2071,2087,2,2042,2037,2062,2,2434,2433,2677,2,1997,1979,1980,2,1990,1969,1960,2,410,264,213,2,2076,2068,2054,2,2068,2053,2046,2,2036,2029,2013,2,2058,2063,2038,2
0.189,1797,1749,1659,2,2107,2122,2122,2,2115,2133,2141,2,3698,3844,3889,2,2028,2036,2047,2,2034,2052,2055,2,2066,2075,2085,2,2043,2042,2062,2,2303,2351,2441,2,1993,1978,1978,2,1985,1967,1959,2,402,256,211,2,2072,2064,2053,2,2066,2048,2045,2,2034,2025,2015,2,2057,2058,2038,2
0.19,1807,2216,2099,2,2108,2130,2128,2,2115,2140,2145,2,3698,3852,3893,2,2028,2041,2050,2,2034,2057,2058,2,2066,2081,2088,2,2043,2048,2066,2,2293,1884,2001,2,1992,1970,1972,2,1985,1960,1955,2,402,248,207,2,2072,2059,2050,2,2066,2043,2042,2,2034,2019,2012,2,2057,2052,2034,2
0.19,1972,2273,2099,2,2113,2133,2128,2,2121,2143,2145,2,3704,3854,3893,2,2034,2044,2050,2,2041,2060,2058,2,2073,2084,2088,2,2049,2049,2066,2,2128,1827,2001,2,1987,1967,1972,2,1979,1957,1955,2,396,246,207,2,2066,2056,2050,2,2059,2040,2042,2,2027,2016,2012,2,2051,2051,2034,2
0.191,2003,2273,2461,2,2116,2133,2136,2,2124,2143,2152,2,3707,3854,3899,2,2037,2044,2056,2,2045,2060,2065,2,2076,2084,2095,2,2054,2049,2072,2,2097,1827,1639,2,1984,1967,1964,2,1976,1957,1948,2,393,246,201,2,2063,2056,2044,2,2055,2040,2035,2,2024,2016,2005,2,2046,2051,2028,2
0.192,1988,2218,2432,2,2117,2135,2138,2,2124,2146,2154,2,3701,3855,3900,2,2036,2047,2059,2,2043,2063,2068,2,2075,2087,2097,2,2052,2050,2075,2,2112,1882,1668,2,1983,1965,1962,2,1976,1954,1946,2,399,245,200,2,2064,2053,2041,2,2057,2037,2032,2,2025,2013,2003,2,2048,2050,2025,2
0.193,1993,2110,2436,2,2118,2135,2139,2,2126,2146,2156,2,3705,3852,3902,2,2039,2046,2059,2,2047,2061,2069,2,2078,2086,2101,2,2057,2050,2076,2,2107,1990,1664,2,1982,1965,1961,2,1974,1954,1944,2,395,248,198,2,2061,2054,2041,2,2053,2039,2031,2,2022,2014,1999,2,2043,2050,2024,2
0.195,1955,2027,2289,2,2119,2137,2139,2,2128,2148,2156,2,3712,3858,3901,2,2042,2051,2061,2,2053,2068,2071,2,2085,2093,2101,2,2059,2058,2078,2,2145,2073,1811,2,1981,1963,1961,2,1972,1952,1944,2,388,242,199,2,2058,2049,2039,2,2047,2032,2029,2,2015,2007,1999,2,2041,2042,2022,2
0.196,1927,1932,2100,2,2119,2137,2138,2,2127,2147,2156,2,3704,3853,3899,2,2040,2049,2061,2,2049,2066,2072,2,2082,2092,2104,2,2059,2057,2079,2,2173,2168,2000,2,1981,1963,1962,2,1973,1953,1944,2,396,247,201,2,2060,2051,2039,2,2051,2034,2028,2,2018,2008,1996,2,2041,2043,2021,2
0.196,1876,1932,1977,2,2118,2137,2138,2,2126,2147,2156,2,3700,3853,3899,2,2039,2049,2061,2,2050,2066,2072,2,2083,2092,2104,2,2060,2057,2079,2,2224,2168,2123,2,1982,1963,1962,2,1974,1953,1944,2,400,247,201,2,2061,2051,2039,2,2050,2034,2028,2,2017,2008,1996,2,2040,2043,2021,2
0.197,1876,1717,1669,2,2118,2135,2135,2,2126,2147,2153,2,3700,3853,3896,2,2039,2051,2060,2,2050,2069,2071,2,2083,2095,2103,2,2060,2060,2080,2,2224,2383,2431,2,1982,1965,1965,2,1974,1953,1947,2,400,247,204,2,2061,2049,2040,2,2050,2031,2029,2,2017,2005,1997,2,2040,2040,2020,2
0.198,1746,1535,1669,2,2112,2131,2135,2,2120,2143,2153,2,3697,3848,3896,2,2035,2046,2060,2,2047,2063,2071,2,2080,2089,2103,2,2057,2054,2080,2,2354,2565,2431,2,1988,1969,1965,2,1980,1957,1947,2,403,252,204,2,2065,2054,2040,2,2053,2037,2029,2,2020,2011,1997,2,2043,2046,2020,2
0.199,1636,1535,1106,2,2109,2131,2124,2,2117,2143,2145,2,3696,3848,3888,2,2033,2046,2053,2,2045,2063,2064,2,2078,2089,2098,2,2055,2054,2071,2,2464,2565,2994,2,1991,1969,1976,2,1983,1957,1955,2,404,252,212,2,2067,2054,2047,2,2055,2037,2036,2,2022,2011,2002,2,2045,2046,2029,2
0.2,1714,1519,1097,2,2107,2126,2121,2,2114,2138,2142,2,3687,3840,3885,2,2028,2040,2051,2,2038,2056,2061,2,2071,2082,2092,2,2047,2047,2068,2,2386,2581,3003,2,1993,1974,1979,2,1986,1962,1958,2,413,260,215,2,2072,2060,2049,2,2062,2044,2039,2,2029,2018,2008,2,2053,2053,2032,2
0.201,1650,1575,1059,2,2105,2123,2119,2,2113,2134,2140,2,3692,3832,3883,2,2028,2034,2047,2,2040,2048,2057,2,2072,2074,2091,2,2048,2044,2065,2,2450,2525,3041,2,1995,1977,1981,2,1987,1966,1960,2,408,268,217,2,2072,2066,2053,2,2060,2052,2043,2,2028,2026,2009,2,2052,2056,2035,2
0.203,1640,1606,1200,2,2105,2123,2119,2,2114,2134,2139,2,3692,3839,3883,2,2025,2037,2047,2,2035,2052,2056,2,2067,2077,2088,2,2043,2044,2064,2,2460,2494,2900,2,1995,1977,1981,2,1986,1966,1961,2,408,261,217,2,2075,2063,2053,2,2065,2048,2044,2,2033,2023,2012,2,2057,2056,2036,2
0.204,1735,1744,1383,2,2104,2123,2119,2,2111,2133,2139,2,3692,3842,3884,2,2025,2037,2046,2,2035,2052,2055,2,2067,2076,2086,2,2043,2043,2063,2,2365,2356,2717,2,1996,1977,1981,2,1989,1967,1961,2,408,258,216,2,2075,2063,2054,2,2065,2048,2045,2,2033,2024,2014,2,2057,2057,2037,2
0.204,1833,1871,1383,2,2104,2123,2119,2,2111,2133,2139,2,3692,3843,3884,2,2024,2037,2046,2,2032,2052,2055,2,2064,2075,2086,2,2040,2041,2063,2,2267,2229,2717,2,1996,1977,1981,2,1989,1967,1961,2,408,257,216,2,2076,2063,2054,2,2068,2048,2045,2,2036,2025,2014,2,2060,2059,2037,2
0.205,1930,1871,2000,2,2107,2123,2125,2,2114,2133,2143,2,3697,3843,3890,2,2027,2037,2048,2,2035,2052,2057,2,2066,2075,2087,2,2044,2041,2063,2,2170,2229,2100,2,1993,1977,1975,2,1986,1967,1957,2,403,257,210,2,2073,2063,2052,2,2065,2048,2043,2,2034,2025,2013,2,2056,2059,2037,2
0.206,1930,2218,2351,2,2107,2130,2131,2,2114,2139,2147,2,3697,3847,3894,2,2027,2042,2052,2,2035,2057,2061,2,2066,2086,2089,2,2044,2052,2066,2,2170,1882,1749,2,1993,1970,1969,2,1986,1961,1953,2,403,253,206,2,2073,2058,2048,2,2065,2043,2039,2,2034,2014,2011,2,2056,2048,2034,2
0.207,2069,2226,2614,2,2111,2133,2135,2,2119,2142,2150,2,3703,3847,3897,2,2032,2042,2053,2,2040,2056,2062,2,2070,2083,2094,2,2049,2050,2068,2,2031,1874,1486,2,1989,1967,1965,2,1981,1958,1950,2,397,253,203,2,2068,2058,2047,2,2060,2044,2038,2,2030,2017,2006,2,2051,2050,2032,2
0.209,2160,2312,2653,2,2115,2136,2138,2,2123,2145,2153,2,3712,3856,3899,2,2037,2048,2057,2,2048,2064,2065,2,2079,2090,2095,2,2054,2057,2071,2,1940,1788,1447,2,1985,1964,1962,2,1977,1955,1947,2,388,244,201,2,2063,2052,2043,2,2052,2036,2035,2,2021,2010,2005,2,2046,2043,2029,2
0.209,2131,2242,2541,2,2117,2137,2139,2,2124,2146,2156,2,3707,3854,3901,2,2037,2048,2060,2,2046,2064,2069,2,2077,2090,2101,2,2054,2055,2075,2,1969,1858,1559,2,1983,1963,1961,2,1976,1954,1944,2,393,246,199,2,2063,2052,2040,2,2054,2036,2031,2,2023,2010,1999,2,2046,2045,2025,2
0.21,2087,2242,2503,2,2119,2137,2140,2,2127,2146,2156,2,3705,3854,3901,2,2039,2048,2060,2,2047,2064,2069,2,2080,2090,2101,2,2056,2055,2075,2,2013,1858,1597,2,1981,1963,1960,2,1973,1954,1944,2,395,246,199,2,2061,2052,2040,2,2053,2036,2031,2,2020,2010,1999,2,2044,2045,2025,2
0.211,2087,2085,2365,2,2119,2138,2140,2,2127,2148,2156,2,3705,3856,3901,2,2039,2051,2060,2,2047,2067,2070,2,2080,2094,2101,2,2056,2060,2078,2,2013,2015,1735,2,1981,1962,1960,2,1973,1952,1944,2,395,244,199,2,2061,2049,2040,2,2053,2033,2030,2,2020,2006,1999,2,2044,2040,2022,2
0.212,2016,2023,2365,2,2120,2138,2140,2,2127,2148,2156,2,3706,3854,3901,2,2040,2051,2060,2,2050,2067,2070,2,2083,2093,2101,2,2059,2058,2078,2,2084,2077,1735,2,1980,1962,1960,2,1973,1952,1944,2,394,246,199,2,2060,2049,2040,2,2050,2033,2030,2,2017,2007,1999,2,2041,2042,2022,2
0.213,1994,2023,2067,2,2120,2138,2138,2,2127,2148,2155,2,3708,3854,3898,2,2041,2051,2061,2,2053,2067,2072,2,2086,2093,2106,2,2062,2058,2080,2,2106,2077,2033,2,1980,1962,1962,2,1973,1952,1945,2,392,246,202,2,2059,2049,2039,2,2047,2033,2028,2,2014,2007,1994,2,2038,2042,2020,2
0.214,1935,1870,1710,2,2118,2135,2134,2,2125,2146,2152,2,3700,3849,3894,2,2039,2049,2060,2,2049,2066,2071,2,2083,2092,2103,2,2059,2056,2078,2,2165,2230,2390,2,1982,1965,1966,2,1975,1954,1948,2,400,251,206,2,2061,2051,2040,2,2051,2034,2029,2,2017,2008,1997,2,2041,2044,2022,2
0.215,1794,1739,1420,2,2115,2130,2130,2,2122,2140,2149,2,3700,3838,3891,2,2037,2041,2056,2,2048,2057,2067,2,2082,2086,2103,2,2058,2052,2076,2,2306,2361,2680,2,1985,1970,1970,2,1978,1960,1951,2,400,262,209,2,2063,2059,2044,2,2052,2043,2033,2,2018,2014,1997,2,2042,2048,2024,2
0.216,1608,1510,1211,2,2108,2127,2126,2,2115,2138,2145,2,3695,3843,3888,2,2031,2043,2053,2,2040,2060,2064,2,2073,2086,2097,2,2049,2052,2072,2,2492,2590,2889,2,1992,1973,1974,2,1985,1962,1955,2,405,257,212,2,2069,2057,2047,2,2060,2040,2036,2,2027,2014,2003,2,2051,2048,2028,2
0.217,1661,1553,1225,2,2108,2123,2123,2,2115,2135,2142,2,3695,3842,3886,2,2031,2039,2050,2,2040,2056,2060,2,2073,2082,2092,2,2049,2048,2069,2,2439,2547,2875,2,1992,1977,1977,2,1985,1965,1958,2,405,258,214,2,2069,2061,2050,2,2060,2044,2040,2,2027,2018,2008,2,2051,2052,2031,2
0.218,1688,1670,1225,2,2104,2123,2123,2,2111,2134,2142,2,3691,3841,3886,2,2026,2037,2050,2,2035,2053,2060,2,2068,2078,2092,2,2044,2042,2069,2,2412,2430,2875,2,1996,1977,1977,2,1989,1966,1958,2,409,259,214,2,2074,2063,2050,2,2065,2047,2040,2,2032,2022,2008,2,2056,2058,2031,2
0.219,1758,1670,1507,2,2104,2123,2121,2,2111,2134,2140,2,3693,3841,3885,2,2026,2037,2047,2,2035,2053,2056,2,2066,2078,2087,2,2044,2042,2062,2,2342,2430,2593,2,1996,1977,1979,2,1989,1966,1960,2,407,259,215,2,2074,2063,2053,2,2065,2047,2044,2,2034,2022,2013,2,2056,2058,2038,2
0.22,1777,1785,1664,2,2103,2123,2121,2,2110,2133,2140,2,3687,3840,3885,2,2023,2036,2047,2,2030,2051,2055,2,2061,2075,2084,2,2038,2039,2061,2,2323,2315,2436,2,1997,1977,1979,2,1990,1967,1960,2,413,260,215,2,2077,2064,2053,2,2070,2049,2045,2,2039,2025,2016,2,2062,2061,2039,2
0.221,1826,1960,1765,2,2104,2124,2121,2,2111,2133,2140,2,3691,3837,3886,2,2024,2033,2045,2,2032,2047,2053,2,2063,2072,2085,2,2041,2037,2060,2,2274,2140,2335,2,1996,1976,1979,2,1989,1967,1960,2,409,263,214,2,2076,2067,2055,2,2068,2053,2047,2,2037,2028,2015,2,2059,2063,2040,2
0.222,2066,2191,2146,2,2109,2127,2125,2,2116,2136,2143,2,3702,3847,3889,2,2029,2039,2048,2,2039,2053,2056,2,2068,2078,2085,2,2046,2043,2062,2,2034,1909,1954,2,1991,1973,1975,2,1984,1964,1957,2,398,253,211,2,2071,2061,2052,2,2061,2047,2044,2,2032,2022,2015,2,2054,2057,2038,2
0.224,2021,2325,2439,2,2110,2131,2135,2,2117,2139,2150,2,3698,3847,3897,2,2029,2040,2054,2,2037,2054,2062,2,2068,2078,2093,2,2046,2043,2068,2,2079,1775,1661,2,1990,1969,1965,2,1983,1961,1950,2,402,253,203,2,2071,2060,2046,2,2063,2046,2038,2,2032,2022,2007,2,2054,2057,2032,2
0.224,2095,2325,2681,2,2115,2131,2135,2,2123,2139,2150,2,3702,3847,3897,2,2035,2040,2054,2,2042,2054,2062,2,2073,2078,2093,2,2050,2043,2068,2,2005,1775,1419,2,1985,1969,1965,2,1977,1961,1950,2,398,253,203,2,2065,2060,2046,2,2058,2046,2038,2,2027,2022,2007,2,2050,2057,2032,2
0.225,2095,2363,2709,2,2115,2136,2138,2,2123,2145,2153,2,3702,3855,3899,2,2035,2047,2057,2,2042,2062,2065,2,2073,2087,2095,2,2050,2053,2072,2,2005,1737,1391,2,1985,1964,1962,2,1977,1955,1947,2,398,245,201,2,2065,2053,2043,2,2058,2038,2035,2,2027,2013,2005,2,2050,2047,2028,2
0.226,2114,2275,2709,2,2119,2138,2138,2,2126,2147,2153,2,3707,3855,3899,2,2039,2048,2057,2,2047,2064,2065,2,2079,2088,2095,2,2056,2053,2072,2,1986,1825,1391,2,1981,1962,1962,2,1974,1953,1947,2,393,245,201,2,2061,2052,2043,2,2053,2036,2035,2,2021,2012,2005,2,2044,2047,2028,2
0.227,2070,2220,2576,2,2120,2140,2139,2,2127,2149,2155,2,3710,3861,3900,2,2041,2053,2059,2,2051,2070,2068,2,2083,2095,2097,2,2060,2061,2075,2,2030,1880,1524,2,1980,1960,1961,2,1973,1951,1945,2,390,239,200,2,2059,2047,2041,2,2049,2030,2032,2,2017,2005,2003,2,2040,2039,2025,2
0.231,2030,2101,2370,2,2120,2140,2139,2,2127,2149,2155,2,3703,3857,3899,2,2039,2052,2061,2,2047,2068,2070,2,2080,2093,2098,2,2057,2059,2077,2,2070,1999,1730,2,1980,1960,1961,2,1973,1951,1945,2,397,243,201,2,2061,2048,2039,2,2053,2032,2030,2,2020,2007,2002,2,2043,2041,2023,2
0.233,1977,2031,2244,2,2121,2138,2139,2,2128,2147,2155,2,3709,3849,3899,2,2042,2048,2060,2,2053,2063,2070,2,2086,2095,2102,2,2062,2062,2078,2,2123,2069,1856,2,1979,1962,1961,2,1972,1953,1945,2,391,251,201,2,2058,2052,2040,2,2047,2037,2030,2,2014,2005,1998,2,2038,2038,2022,2
0.233,1893,1934,2059,2,2120,2138,2138,2,2126,2148,2155,2,3707,3855,3898,2,2042,2052,2061,2,2052,2069,2072,2,2086,2095,2102,2,2062,2062,2080,2,2207,2166,2041,2,1980,1962,1962,2,1974,1952,1945,2,393,245,202,2,2058,2048,2039,2,2048,2031,2028,2,2014,2005,1998,2,2038,2038,2020,2
0.233,1874,1435,1551,2,2118,2131,2131,2,2126,2144,2150,2,3707,3851,3893,2,2042,2050,2057,2,2052,2067,2069,2,2086,2094,2099,2,2062,2060,2078,2,2226,2665,2549,2,1982,1969,1969,2,1974,1956,1950,2,393,249,207,2,2058,2050,2043,2,2048,2033,2031,2,2014,2006,2001,2,2038,2040,2022,2
0.233,1675,1342,1551,2,2111,2128,2131,2,2117,2141,2150,2,3695,3847,3893,2,2034,2045,2057,2,2044,2062,2069,2,2078,2088,2099,2,2054,2053,2078,2,2425,2758,2549,2,1989,1972,1969,2,1983,1959,1950,2,405,253,207,2,2066,2055,2043,2,2056,2038,2031,2,2022,2012,2001,2,2046,2047,2022,2
0.234,1589,1342,1077,2,2108,2128,2122,2,2115,2141,2143,2,3695,3847,3886,2,2031,2045,2051,2,2041,2062,2061,2,2074,2088,2092,2,2051,2053,2069,2,2511,2758,3023,2,1992,1972,1978,2,1985,1959,1957,2,405,253,214,2,2069,2055,2049,2,2059,2038,2039,2,2026,2012,2008,2,2049,2047,2031,2
0.234,1684,1390,1111,2,2106,2125,2120,2,2112,2137,2141,2,3686,3843,3885,2,2026,2041,2050,2,2034,2057,2059,2,2067,2083,2088,2,2044,2047,2066,2,2416,2710,2989,2,1994,1975,1980,2,1988,1963,1959,2,414,257,215,2,2074,2059,2050,2,2066,2043,2041,2,2033,2017,2012,2,2056,2053,2034,2
0.235,1645,1528,1109,2,2105,2123,2119,2,2112,2134,2140,2,3692,3837,3885,2,2026,2035,2046,2,2036,2050,2056,2,2069,2076,2088,2,2046,2041,2063,2,2455,2572,2991,2,1995,1977,1981,2,1988,1966,1960,2,408,263,215,2,2074,2065,2054,2,2064,2050,2044,2,2031,2024,2012,2,2054,2059,2037,2
0.237,1660,1607,1265,2,2105,2123,2119,2,2113,2134,2139,2,3700,3843,3885,2,2027,2038,2046,2,2038,2054,2055,2,2066,2079,2085,2,2043,2045,2062,2,2440,2493,2835,2,1995,1977,1981,2,1987,1966,1961,2,400,257,215,2,2073,2062,2054,2,2062,2046,2045,2,2034,2021,2015,2,2057,2055,2038,2
0.238,1727,1694,1457,2,2104,2123,2120,2,2111,2133,2139,2,3692,3840,3886,2,2024,2035,2045,2,2034,2049,2053,2,2066,2074,2083,2,2043,2040,2060,2,2373,2406,2643,2,1996,1977,1980,2,1989,1967,1961,2,408,260,214,2,2076,2065,2055,2,2066,2051,2047,2,2034,2026,2017,2,2057,2060,2040,2
0.238,1832,1694,1591,2,2106,2123,2120,2,2114,2133,2139,2,3694,3840,3886,2,2026,2035,2045,2,2034,2049,2053,2,2065,2074,2083,2,2041,2040,2060,2,2268,2406,2509,2,1994,1977,1980,2,1986,1967,1961,2,406,260,214,2,2074,2065,2055,2,2066,2051,2047,2,2035,2026,2017,2,2059,2060,2040,2
0.239,1832,2169,2041,2,2106,2129,2126,2,2114,2138,2143,2,3694,3848,3891,2,2026,2040,2048,2,2034,2054,2056,2,2065,2079,2085,2,2041,2045,2063,2,2268,1931,2059,2,1994,1971,1974,2,1986,1962,1957,2,406,252,209,2,2074,2060,2052,2,2066,2046,2044,2,2035,2021,2015,2,2059,2055,2037,2
0.24,2076,2279,2041,2,2113,2133,2126,2,2121,2141,2143,2,3703,3850,3891,2,2033,2042,2048,2,2040,2057,2056,2,2071,2081,2085,2,2047,2046,2063,2,2024,1821,2059,2,1987,1967,1974,2,1979,1959,1957,2,397,250,209,2,2067,2058,2052,2,2060,2043,2044,2,2029,2019,2015,2,2053,2054,2037,2
0.241,2149,2279,2515,2,2116,2133,2136,2,2124,2141,2150,2,3708,3850,3897,2,2037,2042,2055,2,2045,2057,2064,2,2076,2081,2095,2,2053,2046,2070,2,1951,1821,1585,2,1984,1967,1964,2,1976,1959,1950,2,392,250,203,2,2063,2058,2045,2,2055,2043,2036,2,2024,2019,2005,2,2047,2054,2030,2
0.242,2132,2267,2535,2,2117,2134,2139,2,2124,2143,2153,2,3703,3848,3899,2,2037,2043,2058,2,2043,2058,2067,2,2075,2082,2097,2,2052,2048,2073,2,1968,1833,1565,2,1983,1966,1961,2,1976,1957,1947,2,397,252,201,2,2063,2057,2042,2,2057,2042,2033,2,2025,2018,2003,2,2048,2052,2027,2
0.243,2189,2162,2578,2,2120,2135,2140,2,2127,2144,2155,2,3711,3843,3901,2,2040,2042,2058,2,2049,2056,2068,2,2082,2081,2101,2,2058,2057,2075,2,1911,1938,1522,2,1980,1965,1960,2,1973,1956,1945,2,389,257,199,2,2060,2058,2042,2,2051,2044,2032,2,2018,2019,1999,2,2042,2043,2025,2
0.245,2149,2107,2443,2,2121,2137,2140,2,2128,2147,2156,2,3711,3852,3901,2,2041,2048,2060,2,2051,2064,2070,2,2084,2090,2101,2,2060,2057,2078,2,1951,1993,1657,2,1979,1963,1960,2,1972,1953,1944,2,389,248,199,2,2059,2052,2040,2,2049,2036,2030,2,2016,2010,1999,2,2040,2043,2022,2
0.245,2120,1965,2277,2,2121,2138,2140,2,2128,2149,2156,2,3711,3855,3901,2,2041,2052,2060,2,2051,2069,2070,2,2084,2095,2102,2,2060,2061,2080,2,1980,2135,1823,2,1979,1962,1960,2,1972,1951,1944,2,389,245,199,2,2059,2048,2040,2,2049,2031,2030,2,2016,2005,1998,2,2040,2039,2020,2
0.247,2058,1892,2277,2,2120,2137,2140,2,2126,2149,2156,2,3706,3854,3901,2,2041,2052,2060,2,2052,2069,2070,2,2086,2095,2102,2,2061,2059,2080,2,2042,2208,1823,2,1980,1963,1960,2,1974,1951,1944,2,394,246,199,2,2059,2048,2040,2,2048,2031,2030,2,2014,2005,1998,2,2039,2041,2020,2
0.248,1981,1892,1905,2,2118,2137,2137,2,2124,2149,2154,2,3705,3854,3897,2,2040,2052,2060,2,2052,2069,2071,2,2085,2095,2104,2,2061,2059,2080,2,2119,2208,2195,2,1982,1963,1963,2,1976,1951,1946,2,395,246,203,2,2060,2048,2040,2,2048,2031,2029,2,2015,2005,1996,2,2039,2041,2020,2
0.248,1985,1679,1539,2,2115,2132,2131,2,2121,2144,2149,2,3695,3848,3891,2,2036,2048,2057,2,2047,2065,2068,2,2080,2091,2099,2,2056,2055,2076,2,2115,2421,2561,2,1985,1968,1969,2,1979,1956,1951,2,405,252,209,2,2064,2052,2043,2,2053,2035,2032,2,2020,2009,2001,2,2044,2045,2024,2
0.249,1863,1602,1264,2,2112,2127,2127,2,2118,2138,2146,2,3694,3839,3888,2,2033,2041,2052,2,2045,2056,2063,2,2077,2083,2098,2,2055,2049,2073,2,2237,2498,2836,2,1988,1973,1973,2,1982,1962,1954,2,406,261,212,2,2067,2059,2048,2,2055,2044,2037,2,2023,2017,2002,2,2045,2051,2027,2
0.25,1717,1468,1171,2,2109,2125,2123,2,2117,2137,2143,2,3700,3844,3885,2,2033,2043,2050,2,2038,2058,2060,2,2069,2085,2093,2,2047,2050,2070,2,2383,2632,2929,2,1991,1975,1977,2,1983,1963,1957,2,400,256,215,2,2067,2057,2050,2,2062,2042,2040,2,2031,2015,2007,2,2053,2050,2030,2
0.251,1798,1543,1288,2,2107,2123,2120,2,2114,2134,2140,2,3691,3839,3884,2,2028,2038,2047,2,2038,2052,2056,2,2069,2078,2089,2,2047,2044,2064,2,2302,2557,2812,2,1993,1977,1980,2,1986,1966,1960,2,409,261,216,2,2072,2062,2053,2,2062,2048,2044,2,2031,2022,2011,2,2053,2056,2036,2
0.252,1853,1543,1330,2,2104,2123,2120,2,2110,2134,2140,2,3688,3839,3884,2,2025,2038,2047,2,2033,2052,2056,2,2064,2078,2089,2,2042,2044,2064,2,2247,2557,2770,2,1996,1977,1980,2,1990,1966,1960,2,412,261,216,2,2075,2062,2053,2,2067,2048,2044,2,2036,2022,2011,2,2058,2056,2036,2
0.253,1853,1775,1496,2,2104,2122,2120,2,2110,2133,2140,2,3688,3841,3885,2,2025,2036,2046,2,2033,2050,2055,2,2064,2076,2086,2,2042,2042,2063,2,2247,2325,2604,2,1996,1978,1980,2,1990,1967,1960,2,412,259,215,2,2075,2064,2054,2,2067,2050,2045,2,2036,2024,2014,2,2058,2058,2037,2
0.254,1906,1885,1496,2,2103,2123,2120,2,2109,2133,2140,2,3691,3840,3885,2,2024,2035,2046,2,2032,2049,2055,2,2063,2073,2086,2,2040,2039,2063,2,2194,2215,2604,2,1997,1977,1980,2,1991,1967,1960,2,409,260,215,2,2076,2065,2054,2,2068,2051,2045,2,2037,2027,2014,2,2060,2061,2037,2
0.255,2024,1885,2017,2,2106,2123,2124,2,2113,2133,2142,2,3697,3840,3888,2,2027,2035,2047,2,2035,2049,2055,2,2066,2073,2088,2,2043,2039,2063,2,2076,2215,2083,2,1994,1977,1976,2,1987,1967,1958,2,403,260,212,2,2073,2065,2053,2,2065,2051,2045,2,2034,2027,2012,2,2057,2061,2037,2
0.256,1988,2120,2394,2,2107,2127,2129,2,2114,2136,2146,2,3693,3842,3891,2,2026,2036,2051,2,2033,2050,2059,2,2064,2073,2089,2,2041,2039,2066,2,2112,1980,1706,2,1993,1973,1971,2,1986,1964,1954,2,407,258,209,2,2074,2064,2049,2,2067,2050,2041,2,2036,2027,2011,2,2059,2061,2034,2
0.257,2190,2210,2679,2,2112,2130,2133,2,2119,2139,2149,2,3703,3841,3895,2,2032,2037,2052,2,2042,2050,2061,2,2073,2073,2093,2,2049,2050,2068,2,1910,1890,1421,2,1988,1970,1967,2,1981,1961,1951,2,397,259,205,2,2068,2063,2048,2,2058,2050,2039,2,2027,2027,2007,2,2051,2050,2032,2
0.258,2339,2379,2782,2,2117,2134,2136,2,2124,2143,2152,2,3708,3852,3898,2,2037,2045,2055,2,2046,2059,2064,2,2078,2083,2095,2,2054,2050,2071,2,1761,1721,1318,2,1983,1966,1964,2,1976,1957,1948,2,392,248,202,2,2063,2055,2045,2,2054,2041,2036,2,2022,2017,2005,2,2046,2050,2029,2
0.259,2264,2381,2744,2,2118,2139,2138,2,2125,2148,2154,2,3708,3858,3899,2,2037,2051,2057,2,2046,2066,2067,2,2078,2092,2097,2,2054,2058,2075,2,1836,1719,1356,2,1982,1961,1962,2,1975,1952,1946,2,392,242,201,2,2063,2049,2043,2,2054,2034,2033,2,2022,2008,2003,2,2046,2042,2025,2
0.26,2201,2308,2744,2,2120,2140,2138,2,2128,2149,2154,2,3708,3858,3899,2,2040,2051,2057,2,2049,2067,2067,2,2082,2092,2097,2,2057,2057,2075,2,1899,1792,1356,2,1980,1960,1962,2,1972,1951,1946,2,392,242,201,2,2060,2049,2043,2,2051,2033,2033,2,2018,2008,2003,2,2043,2043,2025,2
0.261,2193,2308,2503,2,2121,2140,2139,2,2128,2149,2155,2,3708,3858,3899,2,2041,2051,2059,2,2051,2067,2070,2,2084,2092,2102,2,2060,2057,2079,2,1907,1792,1597,2,1979,1960,1961,2,1972,1951,1945,2,392,242,201,2,2059,2049,2041,2,2049,2033,2030,2,2016,2008,1998,2,2040,2043,2021,2
0.262,2097,2228,2361,2,2120,2139,2139,2,2127,2149,2155,2,3701,3856,3899,2,2039,2051,2061,2,2048,2067,2072,2,2081,2092,2102,2,2057,2057,2080,2,2003,1872,1739,2,1980,1961,1961,2,1973,1951,1945,2,399,244,201,2,2061,2049,2039,2,2052,2033,2028,2,2019,2008,1998,2,2043,2043,2020,2
0.264,2064,2141,2257,2,2120,2137,2138,2,2127,2147,2155,2,3705,3849,3898,2,2041,2048,2060,2,2052,2064,2071,2,2086,2089,2105,2,2062,2056,2080,2,2036,1959,1843,2,1980,1963,1962,2,1973,1953,1945,2,395,251,202,2,2059,2052,2040,2,2048,2036,2029,2,2014,2011,1995,2,2038,2044,2020,2
0.264,1930,2032,1982,2,2118,2137,2135,2,2126,2148,2153,2,3709,3855,3895,2,2041,2052,2060,2,2047,2070,2071,2,2081,2095,2103,2,2057,2062,2080,2,2170,2068,2118,2,1982,1963,1965,2,1974,1952,1947,2,391,245,205,2,2059,2048,2040,2,2053,2030,2029,2,2019,2005,1997,2,2043,2038,2020,2
0.265,1918,1844,1645,2,2114,2132,2125,2,2121,2143,2145,2,3697,3847,3887,2,2036,2046,2053,2,2047,2063,2063,2,2081,2088,2097,2,2057,2055,2072,2,2182,2256,2455,2,1986,1968,1975,2,1979,1957,1955,2,403,253,213,2,2064,2054,2047,2,2053,2037,2037,2,2019,2012,2003,2,2043,2045,2028,2
0.266,1799,1844,1380,2,2108,2132,2125,2,2114,2143,2145,2,3689,3847,3887,2,2029,2046,2053,2,2040,2063,2063,2,2072,2088,2097,2,2049,2055,2072,2,2301,2256,2720,2,1992,1968,1975,2,1986,1957,1955,2,411,253,213,2,2071,2054,2047,2,2060,2037,2037,2,2028,2012,2003,2,2051,2045,2028,2
0.267,1799,1707,1333,2,2108,2125,2122,2,2114,2137,2142,2,3689,3842,3885,2,2029,2041,2050,2,2040,2057,2060,2,2072,2082,2092,2,2049,2049,2069,2,2301,2393,2767,2,1992,1975,1978,2,1986,1963,1958,2,411,258,215,2,2071,2059,2050,2,2060,2043,2040,2,2028,2018,2008,2,2051,2051,2031,2
0.268,1749,1769,1333,2,2105,2124,2122,2,2111,2135,2142,2,3688,3840,3885,2,2025,2038,2050,2,2035,2053,2060,2,2068,2077,2092,2,2044,2043,2069,2,2351,2331,2767,2,1995,1976,1978,2,1989,1965,1958,2,412,260,215,2,2075,2062,2050,2,2065,2047,2040,2,2032,2023,2008,2,2056,2057,2031,2
0.269,1776,1802,1449,2,2105,2124,2121,2,2111,2134,2141,2,3692,3845,3885,2,2025,2040,2048,2,2035,2056,2057,2,2067,2080,2088,2,2044,2047,2066,2,2324,2298,2651,2,1995,1976,1979,2,1989,1966,1959,2,408,255,215,2,2075,2060,2052,2,2065,2044,2043,2,2033,2020,2012,2,2056,2053,2034,2
0.27,1824,1851,1595,2,2104,2123,2121,2,2109,2133,2140,2,3685,3841,3885,2,2022,2036,2048,2,2030,2051,2056,2,2062,2075,2085,2,2039,2041,2063,2,2276,2249,2505,2,1996,1977,1979,2,1991,1967,1960,2,415,259,215,2,2078,2064,2052,2,2070,2049,2044,2,2038,2025,2015,2,2061,2059,2037,2
0.271,1834,1980,1690,2,2104,2123,2121,2,2110,2133,2140,2,3693,3838,3885,2,2025,2032,2045,2,2035,2046,2054,2,2066,2070,2086,2,2042,2036,2061,2,2266,2120,2410,2,1996,1977,1979,2,1990,1967,1960,2,407,262,215,2,2075,2068,2055,2,2065,2054,2046,2,2034,2030,2014,2,2058,2064,2039,2
0.272,2042,2143,2020,2,2108,2125,2124,2,2115,2135,2142,2,3705,3846,3888,2,2029,2037,2047,2,2038,2052,2055,2,2068,2076,2085,2,2045,2042,2062,2,2058,1957,2080,2,1992,1975,1976,2,1985,1965,1958,2,395,254,212,2,2071,2063,2053,2,2062,2048,2045,2,2032,2024,2015,2,2055,2058,2038,2
0.273,2014,2501,2398,2,2110,2133,2130,2,2116,2143,2147,2,3700,3856,3893,2,2029,2045,2050,2,2038,2060,2058,2,2068,2084,2088,2,2045,2050,2067,2,2086,1599,1702,2,1990,1967,1970,2,1984,1957,1953,2,400,244,207,2,2071,2055,2050,2,2062,2040,2042,2,2032,2016,2012,2,2055,2050,2033,2
0.274,2131,2494,2398,2,2115,2136,2130,2,2121,2146,2147,2,3703,3858,3893,2,2034,2048,2050,2,2044,2063,2058,2,2075,2086,2088,2,2050,2050,2067,2,1969,1606,1702,2,1985,1964,1970,2,1979,1954,1953,2,397,242,207,2,2066,2052,2050,2,2056,2037,2042,2,2025,2014,2012,2,2050,2050,2033,2
0.275,2139,2494,2642,2,2117,2136,2137,2,2124,2146,2153,2,3706,3858,3899,2,2037,2048,2056,2,2047,2063,2065,2,2077,2086,2096,2,2054,2050,2073,2,1961,1606,1458,2,1983,1964,1963,2,1976,1954,1947,2,394,242,201,2,2063,2052,2044,2,2053,2037,2035,2,2023,2014,2004,2,2046,2050,2027,2
0.276,2139,2362,2580,2,2117,2139,2138,2,2124,2149,2154,2,3706,3856,3899,2,2037,2051,2059,2,2047,2066,2068,2,2077,2096,2098,2,2054,2062,2076,2,1961,1738,1520,2,1983,1961,1962,2,1976,1951,1946,2,394,244,201,2,2063,2049,2041,2,2053,2034,2032,2,2023,2004,2002,2,2046,2038,2024,2
0.277,2123,2272,2557,2,2119,2139,2139,2,2126,2149,2155,2,3711,3853,3901,2,2040,2049,2059,2,2052,2063,2068,2,2082,2092,2102,2,2059,2058,2077,2,1977,1828,1543,2,1981,1961,1961,2,1974,1951,1945,2,389,247,199,2,2060,2051,2041,2,2048,2037,2032,2,2018,2008,1998,2,2041,2042,2023,2
0.278,2102,2195,2413,2,2120,2140,2139,2,2127,2150,2155,2,3717,3859,3901,2,2043,2053,2062,2,2057,2069,2071,2,2088,2098,2102,2,2059,2064,2078,2,1998,1905,1687,2,1980,1960,1961,2,1973,1950,1945,2,383,241,199,2,2057,2047,2038,2,2043,2031,2029,2,2012,2002,1998,2,2041,2036,2022,2
0.279,2053,2111,2233,2,2120,2139,2138,2,2127,2149,2155,2,3709,3854,3899,2,2041,2051,2062,2,2052,2067,2072,2,2083,2096,2104,2,2059,2061,2079,2,2047,1989,1867,2,1980,1961,1962,2,1973,1951,1945,2,391,246,201,2,2059,2049,2038,2,2048,2033,2028,2,2017,2004,1996,2,2041,2039,2021,2
0.28,1987,2111,2104,2,2119,2139,2138,2,2126,2149,2155,2,3703,3854,3899,2,2040,2051,2062,2,2051,2067,2072,2,2083,2096,2104,2,2060,2061,2079,2,2113,1989,1996,2,1981,1961,1962,2,1974,1951,1945,2,397,246,201,2,2060,2049,2038,2,2049,2033,2028,2,2017,2004,1996,2,2040,2039,2021,2
0.281,1987,1658,1655,2,2119,2134,2133,2,2126,2146,2151,2,3703,3851,3895,2,2040,2050,2059,2,2051,2067,2069,2,2083,2095,2101,2,2060,2060,2078,2,2113,2442,2445,2,1981,1966,1967,2,1974,1954,1949,2,397,249,205,2,2060,2050,2041,2,2049,2033,2031,2,2017,2005,1999,2,2040,2040,2022,2
0.282,1794,1508,1655,2,2112,2130,2133,2,2119,2142,2151,2,3697,3846,3895,2,2033,2045,2059,2,2044,2061,2069,2,2076,2088,2101,2,2053,2053,2078,2,2306,2592,2445,2,1988,1970,1967,2,1981,1958,1949,2,403,254,205,2,2067,2055,2041,2,2056,2039,2031,2,2024,2012,1999,2,2047,2047,2022,2
0.283,1688,1508,1130,2,2109,2130,2124,2,2116,2142,2144,2,3697,3846,3886,2,2031,2045,2051,2,2043,2061,2061,2,2074,2088,2096,2,2052,2053,2070,2,2412,2592,2970,2,1991,1970,1976,2,1984,1958,1956,2,403,254,214,2,2069,2055,2049,2,2057,2039,2039,2,2026,2012,2004,2,2048,2047,2030,2
0.284,1804,1551,1174,2,2107,2126,2122,2,2113,2137,2142,2,3688,3839,3884,2,2027,2039,2050,2,2037,2054,2059,2,2068,2081,2090,2,2045,2046,2066,2,2296,2549,2926,2,1993,1974,1978,2,1987,1963,1958,2,412,261,216,2,2073,2061,2050,2,2063,2046,2041,2,2032,2019,2010,2,2055,2054,2034,2
0.285,1780,1640,1169,2,2106,2123,2120,2,2113,2133,2140,2,3692,3831,3884,2,2027,2033,2047,2,2037,2047,2056,2,2068,2074,2090,2,2045,2043,2063,2,2320,2460,2931,2,1994,1977,1980,2,1987,1967,1960,2,408,269,216,2,2073,2067,2053,2,2063,2053,2044,2,2032,2026,2010,2,2055,2057,2037,2
0.286,1757,1689,1317,2,2106,2123,2119,2,2111,2133,2139,2,3693,3839,3884,2,2025,2037,2047,2,2034,2051,2055,2,2065,2078,2087,2,2042,2043,2062,2,2343,2411,2783,2,1994,1977,1981,2,1989,1967,1961,2,407,261,216,2,2075,2063,2053,2,2066,2049,2045,2,2035,2022,2013,2,2058,2057,2038,2
0.287,1850,1824,1493,2,2105,2123,2120,2,2111,2133,2139,2,3693,3844,3886,2,2025,2037,2046,2,2034,2051,2054,2,2065,2077,2084,2,2042,2043,2061,2,2250,2276,2607,2,1995,1977,1980,2,1989,1967,1961,2,407,256,214,2,2075,2063,2054,2,2066,2049,2046,2,2035,2023,2016,2,2058,2057,2039,2
0.289,1966,2019,1493,2,2106,2125,2120,2,2112,2135,2139,2,3695,3846,3886,2,2026,2038,2046,2,2034,2052,2054,2,2064,2077,2084,2,2041,2041,2061,2,2134,2081,2607,2,1994,1975,1980,2,1988,1965,1961,2,405,254,214,2,2074,2062,2054,2,2066,2048,2046,2,2036,2023,2016,2,2059,2059,2039,2
0.289,2076,2019,2227,2,2110,2125,2128,2,2116,2135,2145,2,3700,3846,3892,2,2029,2038,2049,2,2037,2052,2057,2,2067,2077,2088,2,2046,2041,2064,2,2024,2081,1873,2,1990,1975,1972,2,1984,1965,1955,2,400,254,208,2,2071,2062,2051,2,2063,2048,2043,2,2033,2023,2012,2,2054,2059,2036,2
0.29,2117,2225,2490,2,2112,2130,2133,2,2117,2140,2149,2,3696,3850,3895,2,2029,2041,2053,2,2036,2055,2061,2,2067,2079,2091,2,2044,2043,2068,2,1983,1875,1610,2,1988,1970,1967,2,1983,1960,1951,2,404,250,205,2,2071,2059,2047,2,2064,2045,2039,2,2033,2021,2009,2,2056,2057,2032,2
0.291,2222,2231,2694,2,2115,2133,2136,2,2121,2143,2152,2,3702,3849,3898,2,2033,2042,2054,2,2041,2055,2063,2,2072,2079,2095,2,2050,2044,2071,2,1878,1869,1406,2,1985,1967,1964,2,1979,1957,1948,2,398,251,202,2,2067,2058,2046,2,2059,2045,2037,2,2028,2021,2005,2,2050,2056,2029,2
0.292,2258,2297,2680,2,2118,2136,2139,2,2124,2147,2154,2,3711,3858,3899,2,2039,2049,2058,2,2049,2063,2067,2,2081,2088,2097,2,2055,2053,2074,2,1842,1803,1420,2,1982,1964,1961,2,1976,1953,1946,2,389,242,201,2,2061,2051,2042,2,2051,2037,2033,2,2019,2012,2003,2,2045,2047,2026,2
0.293,2245,2229,2533,2,2119,2137,2140,2,2125,2147,2156,2,3705,3855,3900,2,2038,2049,2060,2,2047,2063,2070,2,2079,2088,2101,2,2055,2053,2077,2,1855,1871,1567,2,1981,1963,1960,2,1975,1953,1944,2,395,245,200,2,2062,2051,2040,2,2053,2037,2030,2,2021,2012,1999,2,2045,2047,2023,2
0.294,2216,2229,2470,2,2120,2137,2140,2,2127,2147,2156,2,3704,3855,3900,2,2039,2049,2060,2,2049,2063,2070,2,2081,2088,2101,2,2057,2053,2077,2,1884,1871,1630,2,1980,1963,1960,2,1973,1953,1944,2,396,245,200,2,2061,2051,2040,2,2051,2037,2030,2,2019,2012,1999,2,2043,2047,2023,2
0.295,2216,2113,2345,2,2120,2138,2140,2,2127,2149,2156,2,3704,3857,3900,2,2039,2052,2061,2,2049,2067,2071,2,2081,2093,2102,2,2057,2059,2079,2,1884,1987,1755,2,1980,1962,1960,2,1973,1951,1944,2,396,243,200,2,2061,2048,2039,2,2051,2033,2029,2,2019,2007,1998,2,2043,2041,2021,2
0.296,2174,2066,2345,2,2120,2138,2140,2,2126,2149,2156,2,3704,3854,3900,2,2040,2051,2061,2,2051,2067,2071,2,2084,2092,2102,2,2060,2057,2079,2,1926,2034,1755,2,1980,1962,1960,2,1974,1951,1944,2,396,246,200,2,2060,2049,2039,2,2049,2033,2029,2,2016,2008,1998,2,2040,2043,2021,2
0.297,2136,2011,2179,2,2119,2138,2139,2,2125,2149,2155,2,3705,3860,3900,2,2041,2055,2061,2,2053,2073,2071,2,2086,2098,2102,2,2063,2064,2080,2,1964,2089,1921,2,1981,1962,1961,2,1975,1951,1945,2,395,240,200,2,2059,2045,2039,2,2047,2027,2029,2,2014,2002,1998,2,2037,2036,2020,2
0.298,2109,1816,1735,2,2117,2134,2133,2,2123,2145,2151,2,3696,3852,3894,2,2038,2050,2059,2,2048,2068,2069,2,2081,2094,2099,2,2058,2059,2077,2,1991,2284,2365,2,1983,1966,1967,2,1977,1955,1949,2,404,248,206,2,2062,2050,2041,2,2052,2032,2031,2,2019,2006,2001,2,2042,2041,2023,2
0.299,1965,1741,1403,2,2114,2129,2128,2,2120,2139,2148,2,3696,3840,3891,2,2035,2041,2054,2,2046,2058,2065,2,2080,2084,2099,2,2057,2053,2074,2,2135,2359,2697,2,1986,1971,1972,2,1980,1961,1952,2,404,260,209,2,2065,2059,2046,2,2054,2042,2035,2,2020,2016,2001,2,2043,2047,2026,2
0.3,1786,1572,1262,2,2111,2126,2124,2,2115,2137,2144,2,3694,3844,3888,2,2029,2042,2051,2,2039,2060,2062,2,2072,2086,2094,2,2048,2053,2070,2,2314,2528,2838,2,1989,1974,1976,2,1985,1963,1956,2,406,256,212,2,2071,2058,2049,2,2061,2040,2038,2,2028,2014,2006,2,2052,2047,2030,2
0.301,1873,1697,1338,2,2108,2123,2121,2,2115,2134,2141,2,3694,3843,3886,2,2029,2039,2048,2,2039,2056,2059,2,2072,2081,2090,2,2048,2048,2068,2,2227,2403,2762,2,1992,1977,1979,2,1985,1966,1959,2,406,257,214,2,2071,2061,2052,2,2061,2044,2041,2,2028,2019,2010,2,2052,2052,2032,2
0.302,1925,1827,1338,2,2105,2123,2121,2,2112,2133,2141,2,3691,3842,3886,2,2026,2037,2048,2,2035,2053,2059,2,2066,2078,2090,2,2043,2043,2068,2,2175,2273,2762,2,1995,1977,1979,2,1988,1967,1959,2,409,258,214,2,2074,2063,2052,2,2065,2047,2041,2,2034,2022,2010,2,2057,2057,2032,2
0.303,2001,1827,1671,2,2105,2123,2121,2,2112,2133,2140,2,3692,3842,3887,2,2025,2037,2045,2,2035,2053,2055,2,2065,2078,2086,2,2044,2043,2062,2,2099,2273,2429,2,1995,1977,1979,2,1988,1967,1960,2,408,258,213,2,2075,2063,2055,2,2065,2047,2045,2,2035,2022,2014,2,2056,2057,2038,2
0.304,1998,1966,1870,2,2104,2123,2122,2,2110,2133,2140,2,3685,3843,3888,2,2022,2037,2046,2,2030,2052,2055,2,2061,2075,2084,2,2039,2039,2061,2,2102,2134,2230,2,1996,1977,1978,2,1990,1967,1960,2,415,257,212,2,2078,2063,2054,2,2070,2048,2045,2,2039,2025,2016,2,2061,2061,2039,2
0.305,2090,2172,2025,2,2106,2126,2123,2,2113,2135,2141,2,3692,3842,3889,2,2025,2036,2044,2,2032,2049,2053,2,2062,2072,2085,2,2041,2037,2060,2,2010,1928,2075,2,1994,1974,1977,2,1987,1965,1959,2,408,258,211,2,2075,2064,2056,2,2068,2051,2047,2,2038,2028,2015,2,2059,2063,2040,2
0.306,2320,2456,2443,2,2111,2130,2128,2,2118,2139,2145,2,3704,3851,3892,2,2032,2041,2048,2,2041,2056,2056,2,2071,2079,2086,2,2047,2045,2063,2,1780,1644,1657,2,1989,1970,1972,2,1982,1961,1955,2,396,249,208,2,2068,2059,2052,2,2059,2044,2044,2,2029,2021,2014,2,2053,2055,2037,2
0.307,2291,2538,2656,2,2113,2133,2133,2,2120,2142,2152,2,3700,3851,3898,2,2032,2043,2054,2,2039,2057,2063,2,2070,2080,2094,2,2047,2046,2070,2,1809,1562,1444,2,1987,1967,1967,2,1980,1958,1948,2,400,249,202,2,2068,2057,2046,2,2061,2043,2037,2,2030,2020,2006,2,2053,2054,2030,2
0.308,2322,2538,2849,2,2118,2133,2137,2,2124,2142,2152,2,3702,3851,3898,2,2035,2043,2054,2,2043,2057,2063,2,2075,2080,2094,2,2052,2046,2070,2,1778,1562,1251,2,1982,1967,1963,2,1976,1958,1948,2,398,249,202,2,2065,2057,2046,2,2057,2043,2037,2,2025,2020,2006,2,2048,2054,2030,2
0.309,2322,2567,2861,2,2118,2139,2139,2,2124,2148,2154,2,3702,3857,3900,2,2035,2049,2057,2,2043,2064,2066,2,2075,2088,2096,2,2052,2055,2074,2,1778,1533,1239,2,1982,1961,1961,2,1976,1952,1946,2,398,243,200,2,2065,2051,2043,2,2057,2036,2034,2,2025,2012,2004,2,2048,2045,2026,2
0.31,2294,2491,2861,2,2121,2140,2139,2,2127,2149,2154,2,3706,3856,3900,2,2039,2049,2057,2,2048,2065,2066,2,2081,2089,2096,2,2057,2055,2074,2,1806,1609,1239,2,1979,1960,1961,2,1973,1951,1946,2,394,244,200,2,2061,2051,2043,2,2052,2035,2034,2,2019,2011,2004,2,2043,2045,2026,2
0.311,2282,2491,2653,2,2121,2140,2140,2,2128,2149,2156,2,3709,3856,3900,2,2041,2049,2059,2,2051,2065,2069,2,2084,2089,2103,2,2060,2055,2078,2,1818,1609,1447,2,1979,1960,1960,2,1972,1951,1944,2,391,244,200,2,2059,2051,2041,2,2049,2035,2031,2,2016,2011,1997,2,2040,2045,2022,2
0.312,2201,2378,2502,2,2121,2140,2140,2,2127,2149,2156,2,3702,3853,3899,2,2039,2049,2061,2,2048,2065,2071,2,2081,2089,2103,2,2057,2055,2079,2,1899,1722,1598,2,1979,1960,1960,2,1973,1951,1944,2,398,247,201,2,2061,2051,2039,2,2052,2035,2029,2,2019,2011,1997,2,2043,2045,2021,2
0.313,2155,2303,2404,2,2121,2139,2140,2,2127,2148,2156,2,3705,3846,3899,2,2041,2046,2060,2,2052,2060,2071,2,2085,2093,2106,2,2061,2060,2079,2,1945,1797,1696,2,1979,1961,1960,2,1973,1952,1944,2,395,254,201,2,2059,2054,2040,2,2048,2040,2029,2,2015,2007,1994,2,2039,2040,2021,2
0.314,2065,2208,2226,2,2116,2139,2138,2,2124,2148,2155,2,3702,3853,3897,2,2039,2051,2061,2,2050,2067,2072,2,2083,2093,2105,2,2059,2060,2080,2,2035,1892,1874,2,1984,1961,1962,2,1976,1952,1945,2,398,247,203,2,2061,2049,2039,2,2050,2033,2028,2,2017,2007,1995,2,2041,2040,2020,2
0.315,2029,1703,1790,2,2116,2130,2132,2,2124,2141,2150,2,3702,3847,3892,2,2039,2047,2056,2,2050,2064,2067,2,2083,2090,2099,2,2059,2057,2077,2,2071,2397,2310,2,1984,1970,1968,2,1976,1959,1950,2,398,253,208,2,2061,2053,2044,2,2050,2036,2033,2,2017,2010,2001,2,2041,2043,2023,2
0.316,1860,1666,1790,2,2110,2127,2132,2,2116,2138,2150,2,3693,3844,3892,2,2030,2043,2056,2,2042,2059,2067,2,2075,2084,2099,2,2052,2050,2077,2,2240,2434,2310,2,1990,1973,1968,2,1984,1962,1950,2,407,256,208,2,2070,2057,2044,2,2058,2041,2033,2,2025,2016,2001,2,2048,2050,2023,2
0.317,1828,1666,1485,2,2107,2127,2123,2,2114,2138,2143,2,3693,3844,3886,2,2029,2043,2050,2,2040,2059,2060,2,2072,2084,2092,2,2050,2050,2068,2,2272,2434,2615,2,1993,1973,1977,2,1986,1962,1957,2,407,256,214,2,2071,2057,2050,2,2060,2041,2040,2,2028,2016,2008,2,2050,2050,2032,2
0.318,1880,1734,1546,2,2105,2125,2121,2,2111,2135,2141,2,3685,3841,3885,2,2025,2040,2049,2,2034,2055,2058,2,2066,2080,2088,2,2043,2045,2065,2,2220,2366,2554,2,1995,1975,1979,2,1989,1965,1959,2,415,259,215,2,2075,2060,2051,2,2066,2045,2042,2,2034,2020,2012,2,2057,2055,2035,2
0.319,1866,1872,1566,2,2105,2124,2120,2,2111,2133,2140,2,3688,3835,3885,2,2025,2034,2046,2,2034,2049,2055,2,2066,2074,2088,2,2044,2040,2062,2,2234,2228,2534,2,1995,1976,1980,2,1989,1967,1960,2,412,265,215,2,2075,2066,2054,2,2066,2051,2045,2,2034,2026,2012,2,2056,2060,2038,2
0.32,1937,1961,1713,2,2106,2125,2120,2,2112,2134,2140,2,3696,3842,3885,2,2026,2037,2046,2,2037,2053,2054,2,2064,2078,2085,2,2042,2044,2061,2,2163,2139,2387,2,1994,1975,1980,2,1988,1966,1960,2,404,258,215,2,2074,2063,2054,2,2063,2047,2046,2,2036,2022,2015,2,2058,2056,2039,2
0.321,1950,2053,1969,2,2104,2125,2124,2,2110,2133,2142,2,3690,3839,3888,2,2023,2034,2047,2,2032,2049,2054,2,2064,2073,2085,2,2042,2040,2060,2,2150,2047,2131,2,1996,1975,1976,2,1990,1967,1958,2,410,261,212,2,2077,2066,2053,2,2068,2051,2046,2,2036,2027,2015,2,2058,2060,2040,2
0.322,2073,2053,2168,2,2109,2125,2124,2,2114,2133,2142,2,3695,3839,3888,2,2027,2034,2047,2,2034,2049,2054,2,2065,2073,2085,2,2042,2040,2060,2,2027,2047,1932,2,1991,1975,1976,2,1986,1967,1958,2,405,261,212,2,2073,2066,2053,2,2066,2051,2046,2,2035,2027,2015,2,2058,2060,2040,2
0.323,2073,2436,2520,2,2109,2133,2130,2,2114,2140,2146,2,3695,3849,3893,2,2027,2041,2050,2,2034,2055,2058,2,2065,2079,2088,2,2042,2047,2064,2,2027,1664,1580,2,1991,1967,1970,2,1986,1960,1954,2,405,251,207,2,2073,2059,2050,2,2066,2045,2042,2,2035,2021,2012,2,2058,2053,2036,2
0.324,2259,2463,2520,2,2116,2136,2130,2,2122,2144,2146,2,3703,3851,3893,2,2033,2043,2050,2,2041,2057,2058,2,2073,2081,2088,2,2049,2047,2064,2,1841,1637,1580,2,1984,1964,1970,2,1978,1956,1954,2,397,249,207,2,2067,2057,2050,2,2059,2043,2042,2,2027,2019,2012,2,2051,2053,2036,2
0.325,2278,2535,2655,2,2119,2139,2134,2,2125,2147,2150,2,3708,3860,3896,2,2037,2049,2054,2,2046,2064,2062,2,2077,2089,2091,2,2054,2056,2069,2,1822,1565,1445,2,1981,1961,1966,2,1975,1953,1950,2,392,240,204,2,2063,2051,2046,2,2054,2036,2038,2,2023,2011,2009,2,2046,2044,2031,2
0.326,2268,2445,2602,2,2120,2139,2137,2,2125,2147,2153,2,3702,3857,3897,2,2037,2049,2058,2,2044,2064,2066,2,2076,2089,2094,2,2053,2055,2073,2,1832,1655,1498,2,1980,1961,1963,2,1975,1953,1947,2,398,243,203,2,2063,2051,2042,2,2056,2036,2034,2,2024,2011,2006,2,2047,2045,2027,2
0.327,2276,2338,2595,2,2122,2139,2139,2,2127,2147,2155,2,3709,3849,3899,2,2040,2046,2058,2,2050,2060,2067,2,2083,2086,2099,2,2059,2059,2075,2,1824,1762,1505,2,1978,1961,1961,2,1973,1953,1945,2,391,251,201,2,2060,2054,2042,2,2050,2040,2033,2,2017,2014,2001,2,2041,2041,2025,2
0.328,2221,2249,2458,2,2123,2140,2139,2,2128,2149,2155,2,3710,3857,3899,2,2041,2051,2060,2,2051,2067,2069,2,2084,2093,2100,2,2060,2059,2077,2,1879,1851,1642,2,1977,1960,1961,2,1972,1951,1945,2,390,243,201,2,2059,2049,2040,2,2049,2033,2031,2,2016,2007,2000,2,2040,2041,2023,2
0.329,2188,2066,2275,2,2122,2139,2139,2,2128,2149,2155,2,3710,3857,3899,2,2041,2053,2060,2,2051,2070,2070,2,2084,2096,2100,2,2060,2062,2079,2,1912,2034,1825,2,1978,1961,1961,2,1972,1951,1945,2,390,243,201,2,2059,2047,2040,2,2049,2030,2030,2,2016,2004,2000,2,2040,2038,2021,2
0.33,2117,1961,2275,2,2121,2137,2139,2,2126,2148,2155,2,3705,3856,3899,2,2041,2053,2060,2,2051,2070,2070,2,2085,2095,2100,2,2061,2059,2079,2,1983,2139,1825,2,1979,1963,1961,2,1974,1952,1945,2,395,244,201,2,2059,2047,2040,2,2049,2030,2030,2,2015,2005,2000,2,2039,2041,2021,2
0.331,1982,1961,1671,2,2117,2137,2133,2,2123,2148,2151,2,3703,3856,3894,2,2039,2053,2058,2,2050,2070,2069,2,2083,2095,2102,2,2060,2059,2078,2,2118,2139,2429,2,1983,1963,1967,2,1977,1952,1949,2,397,244,206,2,2061,2047,2042,2,2050,2030,2031,2,2017,2005,1998,2,2040,2041,2022,2
0.332,2051,1775,1399,2,2114,2131,2128,2,2119,2142,2147,2,3693,3847,3890,2,2034,2047,2055,2,2043,2063,2066,2,2076,2088,2097,2,2053,2053,2074,2,2049,2325,2701,2,1986,1969,1972,2,1981,1958,1953,2,407,253,210,2,2066,2053,2045,2,2057,2037,2034,2,2024,2012,2003,2,2047,2047,2026,2
0.333,1926,1742,1187,2,2111,2127,2124,2,2116,2137,2144,2,3693,3838,3887,2,2032,2039,2051,2,2042,2054,2062,2,2074,2080,2096,2,2052,2046,2070,2,2174,2358,2913,2,1989,1973,1976,2,1984,1963,1956,2,407,262,213,2,2068,2061,2049,2,2058,2046,2038,2,2026,2020,2004,2,2048,2054,2030,2
0.334,1795,1645,1186,2,2108,2125,2121,2,2115,2136,2141,2,3700,3843,3885,2,2032,2041,2049,2,2036,2057,2059,2,2068,2083,2091,2,2045,2048,2067,2,2305,2455,2914,2,1992,1975,1979,2,1985,1964,1959,2,400,257,215,2,2068,2059,2051,2,2064,2043,2041,2,2032,2017,2009,2,2055,2052,2033,2
0.335,1886,1713,1431,2,2106,2124,2120,2,2112,2134,2140,2,3691,3839,3885,2,2027,2037,2046,2,2036,2051,2055,2,2068,2077,2087,2,2045,2042,2062,2,2214,2387,2669,2,1994,1976,1980,2,1988,1966,1960,2,409,261,215,2,2073,2063,2054,2,2064,2049,2045,2,2032,2023,2013,2,2055,2058,2038,2
0.336,1981,1713,1431,2,2105,2124,2120,2,2111,2134,2140,2,3689,3839,3885,2,2025,2037,2046,2,2032,2051,2055,2,2064,2077,2087,2,2040,2042,2062,2,2119,2387,2669,2,1995,1976,1980,2,1989,1966,1960,2,411,261,215,2,2075,2063,2054,2,2068,2049,2045,2,2036,2023,2013,2,2060,2058,2038,2
0.337,1981,1903,1602,2,2105,2123,2120,2,2111,2133,2140,2,3689,3842,3886,2,2025,2036,2045,2,2032,2050,2054,2,2064,2075,2084,2,2040,2042,2062,2,2119,2197,2498,2,1995,1977,1980,2,1989,1967,1960,2,411,258,214,2,2075,2064,2055,2,2068,2050,2046,2,2036,2025,2016,2,2060,2058,2038,2
0.338,2081,2070,1602,2,2105,2125,2120,2,2112,2134,2140,2,3692,3843,3886,2,2024,2035,2045,2,2032,2049,2054,2,2063,2073,2084,2,2039,2039,2062,2,2019,2030,2498,2,1995,1975,1980,2,1988,1966,1960,2,408,257,214,2,2076,2065,2055,2,2068,2051,2046,2,2037,2027,2016,2,2061,2061,2038,2
0.339,2208,2267,2012,2,2109,2128,2124,2,2116,2136,2143,2,3699,3851,3889,2,2028,2040,2046,2,2036,2055,2055,2,2067,2079,2084,2,2044,2045,2063,2,1892,1833,2088,2,1991,1972,1976,2,1984,1964,1957,2,401,249,211,2,2072,2060,2054,2,2064,2045,2045,2,2033,2021,2016,2,2056,2055,2037,2
0.34,2223,2424,2390,2,2111,2131,2130,2,2117,2139,2148,2,3695,3851,3894,2,2028,2041,2051,2,2035,2056,2059,2,2066,2080,2087,2,2042,2045,2066,2,1877,1676,1710,2,1989,1969,1970,2,1983,1961,1952,2,405,249,206,2,2072,2059,2049,2,2065,2044,2041,2,2034,2020,2013,2,2058,2055,2034,2
0.341,2396,2409,2679,2,2116,2133,2134,2,2122,2141,2151,2,3705,3846,3897,2,2034,2040,2052,2,2043,2054,2061,2,2074,2079,2093,2,2050,2053,2069,2,1704,1691,1421,2,1984,1967,1966,2,1978,1959,1949,2,395,254,203,2,2066,2060,2048,2,2057,2046,2039,2,2026,2021,2007,2,2050,2047,2031,2
0.342,2472,2484,2751,2,2120,2137,2137,2,2127,2145,2154,2,3709,3855,3899,2,2038,2047,2056,2,2047,2062,2065,2,2079,2087,2095,2,2055,2053,2072,2,1628,1616,1349,2,1980,1963,1963,2,1973,1955,1946,2,391,245,201,2,2062,2053,2044,2,2053,2038,2035,2,2021,2013,2005,2,2045,2047,2028,2
0.343,2437,2400,2686,2,2121,2140,2139,2,2127,2149,2155,2,3709,3860,3900,2,2038,2052,2057,2,2047,2067,2067,2,2079,2092,2097,2,2055,2059,2076,2,1663,1700,1414,2,1979,1960,1961,2,1973,1951,1945,2,391,240,200,2,2062,2048,2043,2,2053,2033,2033,2,2021,2008,2003,2,2045,2041,2024,2
0.344,2372,2322,2686,2,2122,2140,2139,2,2128,2149,2155,2,3708,3859,3900,2,2040,2052,2057,2,2050,2067,2067,2,2083,2092,2097,2,2058,2058,2076,2,1728,1778,1414,2,1978,1960,1961,2,1972,1951,1945,2,392,241,200,2,2060,2048,2043,2,2050,2033,2033,2,2017,2008,2003,2,2042,2042,2024,2
0.345,2341,2322,2451,2,2122,2140,2140,2,2128,2149,2155,2,3709,3859,3900,2,2041,2052,2060,2,2051,2067,2070,2,2084,2092,2102,2,2061,2058,2079,2,1759,1778,1649,2,1978,1960,1960,2,1972,1951,1945,2,391,241,200,2,2059,2048,2040,2,2049,2033,2030,2,2016,2008,1998,2,2039,2042,2021,2
0.346,2284,2256,2317,2,2122,2139,2139,2,2127,2148,2155,2,3702,3856,3899,2,2039,2052,2062,2,2048,2067,2071,2,2081,2092,2102,2,2057,2057,2080,2,1816,1844,1783,2,1978,1961,1961,2,1973,1952,1945,2,398,244,201,2,2061,2048,2038,2,2052,2033,2029,2,2019,2008,1998,2,2043,2043,2020,2
0.347,2261,2106,2215,2,2121,2136,2138,2,2127,2146,2155,2,3704,3848,3899,2,2041,2047,2061,2,2051,2062,2071,2,2084,2088,2105,2,2061,2055,2080,2,1839,1994,1885,2,1979,1964,1962,2,1973,1954,1945,2,396,252,201,2,2059,2053,2039,2,2049,2038,2029,2,2016,2012,1995,2,2039,2045,2020,2
0.348,2008,1883,1825,2,2116,2134,2133,2,2124,2146,2152,2,3708,3853,3895,2,2040,2050,2059,2,2045,2068,2069,2,2078,2093,2102,2,2054,2060,2078,2,2092,2217,2275,2,1984,1966,1967,2,1976,1954,1948,2,392,247,205,2,2060,2050,2041,2,2055,2032,2031,2,2022,2007,1998,2,2046,2040,2022,2
0.349,2050,1754,1335,2,2113,2129,2124,2,2119,2141,2144,2,3697,3845,3886,2,2034,2044,2051,2,2045,2061,2061,2,2078,2086,2094,2,2054,2052,2070,2,2050,2346,2765,2,1987,1971,1976,2,1981,1959,1956,2,403,255,214,2,2066,2056,2049,2,2055,2039,2039,2,2022,2014,2006,2,2046,2048,2030,2
0.35,1961,1754,1335,2,2108,2129,2124,2,2113,2141,2144,2,3689,3845,3886,2,2028,2044,2051,2,2038,2061,2061,2,2070,2086,2094,2,2047,2052,2070,2,2139,2346,2765,2,1992,1971,1976,2,1987,1959,1956,2,411,255,214,2,2072,2056,2049,2,2062,2039,2039,2,2030,2014,2006,2,2053,2048,2030,2
0.351,1961,1800,1378,2,2108,2125,2122,2,2113,2135,2142,2,3689,3841,3885,2,2028,2038,2049,2,2038,2055,2058,2,2070,2079,2089,2,2047,2047,2067,2,2139,2300,2722,2,1992,1975,1978,2,1987,1965,1958,2,411,259,215,2,2072,2062,2051,2,2062,2045,2042,2,2030,2021,2011,2,2053,2053,2033,2
0.352,1934,1918,1378,2,2106,2124,2122,2,2111,2134,2142,2,3690,3839,3885,2,2025,2036,2049,2,2034,2052,2058,2,2066,2076,2089,2,2043,2042,2067,2,2166,2182,2722,2,1994,1976,1978,2,1989,1966,1958,2,410,261,215,2,2075,2064,2051,2,2066,2048,2042,2,2034,2024,2011,2,2057,2058,2033,2
0.353,2002,2000,1567,2,2106,2125,2121,2,2111,2134,2141,2,3693,3845,3885,2,2026,2039,2048,2,2035,2055,2056,2,2067,2079,2086,2,2044,2046,2065,2,2098,2100,2533,2,1994,1975,1979,2,1989,1966,1959,2,407,255,215,2,2074,2061,2052,2,2065,2045,2044,2,2033,2021,2014,2,2056,2054,2035,2
0.354,1998,2098,1788,2,2105,2124,2121,2,2110,2133,2140,2,3687,3844,3885,2,2023,2038,2048,2,2030,2053,2056,2,2061,2076,2084,2,2038,2042,2063,2,2102,2002,2312,2,1995,1976,1979,2,1990,1967,1960,2,413,256,215,2,2077,2062,2052,2,2070,2047,2044,2,2039,2024,2016,2,2062,2058,2037,2
0.355,2060,2249,1931,2,2106,2125,2121,2,2111,2133,2140,2,3691,3838,3886,2,2025,2034,2046,2,2032,2048,2054,2,2062,2071,2085,2,2040,2045,2061,2,2040,1851,2169,2,1994,1975,1979,2,1989,1967,1960,2,409,262,214,2,2075,2066,2054,2,2068,2052,2046,2,2038,2029,2015,2,2060,2055,2039,2
0.356,2346,2491,2356,2,2111,2129,2126,2,2119,2137,2143,2,3702,3848,3890,2,2031,2040,2049,2,2039,2054,2056,2,2068,2077,2086,2,2046,2045,2063,2,1754,1609,1744,2,1989,1971,1974,2,1981,1963,1957,2,398,252,210,2,2069,2060,2051,2,2061,2046,2044,2,2032,2023,2014,2,2054,2055,2037,2
0.357,2293,2707,2657,2,2112,2137,2132,2,2119,2144,2148,2,3702,3856,3895,2,2031,2047,2052,2,2039,2061,2060,2,2068,2085,2089,2,2046,2052,2068,2,1807,1393,1443,2,1988,1963,1968,2,1981,1956,1952,2,398,244,205,2,2069,2053,2048,2,2061,2039,2040,2,2032,2015,2011,2,2054,2048,2032,2
0.358,2339,2684,2657,2,2117,2139,2132,2,2124,2147,2148,2,3706,3857,3895,2,2037,2049,2052,2,2044,2063,2060,2,2074,2086,2089,2,2051,2052,2068,2,1761,1416,1443,2,1983,1961,1968,2,1976,1953,1952,2,394,243,205,2,2063,2051,2048,2,2056,2037,2040,2,2026,2014,2011,2,2049,2048,2032,2
0.359,2365,2684,2819,2,2119,2139,2139,2,2126,2147,2154,2,3708,3857,3899,2,2039,2049,2057,2,2047,2063,2067,2,2077,2086,2098,2,2056,2052,2074,2,1735,1416,1281,2,1981,1961,1961,2,1974,1953,1946,2,392,243,201,2,2061,2051,2043,2,2053,2037,2033,2,2023,2014,2002,2,2044,2048,2026,2
0.36,2262,2570,2719,2,2119,2139,2140,2,2126,2148,2155,2,3702,3856,3899,2,2038,2050,2060,2,2045,2065,2070,2,2076,2088,2099,2,2054,2053,2076,2,1838,1530,1381,2,1981,1961,1960,2,1974,1952,1945,2,398,244,201,2,2062,2050,2040,2,2055,2035,2030,2,2024,2012,2001,2,2046,2047,2024,2
0.361,2240,2462,2669,2,2120,2139,2141,2,2127,2147,2156,2,3704,3850,3900,2,2040,2047,2059,2,2049,2062,2070,2,2080,2086,2103,2,2059,2053,2077,2,1860,1638,1431,2,1980,1961,1959,2,1973,1953,1944,2,396,250,200,2,2060,2053,2041,2,2051,2038,2030,2,2020,2014,1997,2,2041,2047,2023,2
0.362,2251,2380,2546,2,2121,2140,2141,2,2129,2149,2156,2,3713,3858,3900,2,2043,2052,2060,2,2051,2069,2071,2,2083,2093,2103,2,2060,2060,2079,2,1849,1720,1554,2,1979,1960,1959,2,1971,1951,1944,2,387,242,200,2,2057,2048,2040,2,2049,2031,2029,2,2017,2007,1997,2,2040,2040,2021,2
0.363,2173,2300,2256,2,2120,2139,2139,2,2127,2149,2155,2,3705,3854,3898,2,2041,2050,2060,2,2051,2066,2072,2,2083,2091,2105,2,2060,2057,2080,2,1927,1800,1844,2,1980,1961,1961,2,1973,1951,1945,2,395,246,202,2,2059,2050,2040,2,2049,2034,2028,2,2017,2009,1995,2,2040,2043,2020,2
0.364,2074,2300,2256,2,2117,2139,2139,2,2124,2149,2155,2,3700,3854,3898,2,2039,2050,2060,2,2050,2066,2072,2,2082,2091,2105,2,2059,2057,2080,2,2026,1800,1844,2,1983,1961,1961,2,1976,1951,1945,2,400,246,202,2,2061,2050,2040,2,2050,2034,2028,2,2018,2009,1995,2,2041,2043,2020,2
0.365,2074,1711,1758,2,2117,2131,2132,2,2124,2142,2150,2,3700,3847,3893,2,2039,2047,2057,2,2050,2064,2068,2,2082,2090,2100,2,2059,2057,2077,2,2026,2389,2342,2,1983,1969,1968,2,1976,1958,1950,2,400,253,207,2,2061,2053,2043,2,2050,2036,2032,2,2018,2010,2000,2,2041,2043,2023,2
0.366,1814,1604,1758,2,2110,2127,2132,2,2117,2138,2150,2,3695,3841,3893,2,2032,2043,2057,2,2042,2059,2068,2,2075,2085,2100,2,2052,2051,2077,2,2286,2496,2342,2,1990,1973,1968,2,1983,1962,1950,2,405,259,207,2,2068,2057,2043,2,2058,2041,2032,2,2025,2015,2000,2,2048,2049,2023,2
0.367,1717,1443,1485,2,2108,2125,2126,2,2115,2137,2145,2,3695,3846,3888,2,2030,2044,2053,2,2041,2061,2064,2,2073,2087,2094,2,2051,2053,2073,2,2383,2657,2615,2,1992,1975,1974,2,1985,1963,1955,2,405,254,212,2,2070,2056,2047,2,2059,2039,2036,2,2027,2013,2006,2,2049,2047,2027,2
0.368,1798,1522,1461,2,2106,2124,2123,2,2112,2134,2142,2,3687,3840,3886,2,2026,2038,2052,2,2035,2053,2061,2,2067,2079,2089,2,2044,2045,2068,2,2302,2578,2639,2,1994,1976,1977,2,1988,1966,1958,2,413,260,214,2,2074,2062,2048,2,2065,2047,2039,2,2033,2021,2011,2,2056,2055,2032,2
0.369,1774,1674,1417,2,2105,2123,2121,2,2112,2132,2140,2,3690,3833,3885,2,2025,2033,2048,2,2035,2046,2057,2,2065,2075,2089,2,2044,2043,2065,2,2326,2426,2683,2,1995,1977,1979,2,1988,1968,1960,2,410,267,215,2,2075,2067,2052,2,2065,2054,2043,2,2035,2025,2011,2,2056,2057,2035,2
0.37,1797,1756,1537,2,2105,2123,2120,2,2111,2132,2139,2,3693,3839,3885,2,2024,2036,2048,2,2033,2050,2056,2,2063,2075,2086,2,2041,2043,2063,2,2303,2344,2563,2,1995,1977,1980,2,1989,1968,1961,2,407,261,215,2,2076,2064,2052,2,2067,2050,2044,2,2037,2025,2014,2,2059,2057,2037,2
0.371,1839,1911,1730,2,2105,2123,2121,2,2111,2133,2139,2,3693,3843,3886,2,2024,2036,2047,2,2033,2051,2055,2,2063,2075,2084,2,2041,2043,2063,2,2261,2189,2370,2,1995,1977,1979,2,1989,1967,1961,2,407,257,214,2,2076,2064,2053,2,2067,2049,2045,2,2037,2025,2016,2,2059,2057,2037,2
0.372,1952,2146,1730,2,2107,2127,2121,2,2114,2136,2139,2,3696,3846,3886,2,2027,2038,2047,2,2035,2053,2055,2,2065,2076,2084,2,2042,2042,2063,2,2148,1954,2370,2,1993,1973,1979,2,1986,1964,1961,2,404,254,214,2,2073,2062,2053,2,2065,2047,2045,2,2035,2024,2016,2,2058,2058,2037,2
0.373,2053,2146,2478,2,2111,2127,2131,2,2118,2136,2146,2,3702,3846,3894,2,2030,2038,2051,2,2039,2053,2059,2,2068,2076,2089,2,2047,2042,2066,2,2047,1954,1622,2,1989,1973,1969,2,1982,1964,1954,2,398,254,206,2,2070,2062,2049,2,2061,2047,2041,2,2032,2024,2011,2,2053,2058,2034,2
0.374,2080,2262,2634,2,2113,2131,2135,2,2119,2140,2150,2,3698,3849,3897,2,2030,2041,2055,2,2038,2055,2062,2,2068,2078,2091,2,2045,2043,2069,2,2020,1838,1466,2,1987,1969,1965,2,1981,1960,1950,2,402,251,203,2,2070,2059,2045,2,2062,2045,2038,2,2032,2022,2009,2,2055,2057,2031,2
0.375,2173,2265,2768,2,2116,2133,2137,2,2123,2142,2152,2,3705,3847,3899,2,2035,2042,2055,2,2045,2055,2064,2,2075,2079,2096,2,2052,2045,2071,2,1927,1835,1332,2,1984,1967,1963,2,1977,1958,1948,2,395,253,201,2,2065,2058,2045,2,2055,2045,2036,2,2025,2021,2004,2,2048,2055,2029,2
0.376,2207,2307,2711,2,2119,2137,2139,2,2126,2146,2154,2,3713,3856,3901,2,2039,2048,2059,2,2051,2063,2067,2,2080,2088,2098,2,2056,2054,2074,2,1893,1793,1389,2,1981,1963,1961,2,1974,1954,1946,2,387,244,199,2,2061,2052,2041,2,2049,2037,2033,2,2020,2012,2002,2,2044,2046,2026,2
0.377,2151,2215,2521,2,2119,2138,2140,2,2126,2147,2156,2,3706,3853,3901,2,2038,2048,2061,2,2048,2062,2070,2,2080,2088,2102,2,2056,2053,2077,2,1949,1885,1579,2,1981,1962,1960,2,1974,1953,1944,2,394,247,199,2,2062,2052,2039,2,2052,2038,2030,2,2020,2012,1998,2,2044,2047,2023,2
0.378,2095,2215,2426,2,2120,2138,2140,2,2127,2147,2156,2,3704,3853,3901,2,2039,2048,2061,2,2050,2062,2070,2,2082,2088,2102,2,2057,2053,2077,2,2005,1885,1674,2,1980,1962,1960,2,1973,1953,1944,2,396,247,199,2,2061,2052,2039,2,2050,2038,2030,2,2018,2012,1998,2,2043,2047,2023,2
0.379,2095,2021,2255,2,2120,2137,2139,2,2127,2148,2156,2,3704,3853,3900,2,2039,2051,2061,2,2050,2067,2071,2,2082,2093,2102,2,2057,2059,2079,2,2005,2079,1845,2,1980,1963,1961,2,1973,1952,1944,2,396,247,200,2,2061,2049,2039,2,2050,2033,2029,2,2018,2007,1998,2,2043,2041,2021,2
0.38,2055,1931,2255,2,2120,2136,2139,2,2127,2148,2156,2,3704,3852,3900,2,2040,2051,2061,2,2051,2067,2071,2,2084,2092,2102,2,2060,2057,2079,2,2045,2169,1845,2,1980,1964,1961,2,1973,1952,1944,2,396,248,200,2,2060,2049,2039,2,2049,2033,2029,2,2016,2008,1998,2,2040,2043,2021,2
0.381,1940,1842,1970,2,2117,2136,2136,2,2124,2148,2154,2,3704,3857,3897,2,2040,2055,2060,2,2052,2073,2071,2,2084,2098,2102,2,2061,2064,2080,2,2160,2258,2130,2,1983,1964,1964,2,1976,1952,1946,2,396,243,203,2,2060,2045,2040,2,2048,2027,2029,2,2016,2002,1998,2,2039,2036,2020,2
0.382,1984,1661,1585,2,2114,2131,2130,2,2121,2143,2149,2,3695,3849,3891,2,2036,2049,2057,2,2046,2067,2068,2,2078,2092,2098,2,2055,2057,2076,2,2116,2439,2515,2,1986,1969,1970,2,1979,1957,1951,2,405,251,209,2,2064,2051,2043,2,2054,2033,2032,2,2022,2008,2002,2,2045,2043,2024,2
0.383,1840,1618,1291,2,2111,2127,2125,2,2118,2138,2146,2,3696,3838,3888,2,2034,2040,2052,2,2045,2056,2064,2,2077,2081,2097,2,2054,2050,2072,2,2260,2482,2809,2,1989,1973,1975,2,1982,1962,1954,2,404,262,212,2,2066,2060,2048,2,2055,2044,2036,2,2023,2019,2003,2,2046,2050,2028,2
0.384,1678,1504,1210,2,2108,2125,2122,2,2113,2136,2143,2,3694,3842,3885,2,2029,2041,2050,2,2038,2058,2061,2,2070,2083,2092,2,2046,2050,2069,2,2422,2596,2890,2,1992,1975,1978,2,1987,1964,1957,2,406,258,215,2,2071,2059,2050,2,2062,2042,2039,2,2030,2017,2008,2,2054,2050,2031,2
0.385,1779,1611,1300,2,2106,2123,2120,2,2113,2134,2141,2,3694,3843,3885,2,2029,2039,2048,2,2038,2054,2058,2,2070,2079,2089,2,2046,2046,2067,2,2321,2489,2800,2,1994,1977,1980,2,1987,1966,1959,2,406,257,215,2,2071,2061,2052,2,2062,2046,2042,2,2030,2021,2011,2,2054,2054,2033,2
0.386,1856,1702,1300,2,2104,2123,2120,2,2110,2133,2141,2,3691,3841,3885,2,2026,2037,2048,2,2034,2052,2058,2,2065,2076,2089,2,2042,2042,2067,2,2244,2398,2800,2,1996,1977,1980,2,1990,1967,1959,2,409,259,215,2,2074,2063,2052,2,2066,2048,2042,2,2035,2024,2011,2,2058,2058,2033,2
0.387,1887,1702,1576,2,2104,2123,2120,2,2110,2133,2139,2,3693,3841,3885,2,2026,2037,2046,2,2034,2052,2055,2,2064,2076,2086,2,2043,2042,2062,2,2213,2398,2524,2,1996,1977,1980,2,1990,1967,1961,2,407,259,215,2,2074,2063,2054,2,2066,2048,2045,2,2036,2024,2014,2,2057,2058,2038,2
0.388,1937,1840,1850,2,2104,2123,2123,2,2109,2133,2140,2,3686,3842,3887,2,2023,2037,2047,2,2030,2051,2055,2,2060,2074,2084,2,2038,2039,2062,2,2163,2260,2250,2,1996,1977,1977,2,1991,1967,1960,2,414,258,213,2,2077,2063,2053,2,2070,2049,2045,2,2040,2026,2016,2,2062,2061,2038,2
0.389,2042,2028,2063,2,2107,2127,2125,2,2112,2136,2142,2,3693,3843,3890,2,2026,2037,2046,2,2033,2049,2054,2,2063,2072,2087,2,2042,2038,2062,2,2058,2072,2037,2,1993,1973,1975,2,1988,1964,1958,2,407,257,210,2,2074,2063,2054,2,2067,2051,2046,2,2037,2028,2013,2,2058,2062,2038,2
0.39,2211,2302,2423,2,2112,2131,2131,2,2118,2140,2147,2,3705,3852,3894,2,2033,2043,2051,2,2042,2057,2059,2,2072,2080,2088,2,2048,2046,2065,2,1889,1798,1677,2,1988,1969,1969,2,1982,1960,1953,2,395,248,206,2,2067,2057,2049,2,2058,2043,2041,2,2028,2020,2012,2,2052,2054,2035,2
0.391,2204,2331,2537,2,2114,2133,2135,2,2120,2142,2153,2,3701,3851,3899,2,2033,2044,2056,2,2041,2058,2065,2,2071,2082,2095,2,2048,2047,2071,2,1896,1769,1563,2,1986,1967,1965,2,1980,1958,1947,2,399,249,201,2,2067,2056,2044,2,2059,2042,2035,2,2029,2018,2005,2,2052,2053,2029,2
0.392,2220,2331,2669,2,2118,2133,2138,2,2124,2142,2153,2,3703,3851,3899,2,2037,2044,2056,2,2045,2058,2065,2,2076,2082,2095,2,2053,2047,2071,2,1880,1769,1431,2,1982,1967,1962,2,1976,1958,1947,2,397,249,201,2,2063,2056,2044,2,2055,2042,2035,2,2024,2018,2005,2,2047,2053,2029,2
0.393,2220,2308,2632,2,2118,2138,2139,2,2124,2147,2155,2,3703,3856,3901,2,2037,2049,2058,2,2045,2064,2068,2,2076,2090,2097,2,2053,2056,2074,2,1880,1792,1468,2,1982,1962,1961,2,1976,1953,1945,2,397,244,199,2,2063,2051,2042,2,2055,2036,2032,2,2024,2010,2003,2,2047,2044,2026,2
0.394,2189,2237,2632,2,2120,2139,2139,2,2127,2148,2155,2,3706,3855,3901,2,2039,2049,2058,2,2049,2064,2068,2,2080,2090,2097,2,2057,2055,2074,2,1911,1863,1468,2,1980,1961,1961,2,1973,1952,1945,2,394,245,199,2,2061,2051,2042,2,2051,2036,2032,2,2020,2010,2003,2,2043,2045,2026,2
0.395,2185,2237,2407,2,2120,2139,2139,2,2128,2148,2156,2,3709,3855,3900,2,2041,2049,2060,2,2052,2064,2071,2,2083,2090,2104,2,2060,2055,2077,2,1915,1863,1693,2,1980,1961,1961,2,1972,1952,1944,2,391,245,200,2,2059,2051,2040,2,2048,2036,2029,2,2017,2010,1996,2,2040,2045,2023,2
0.396,2097,2171,2272,2,2119,2138,2138,2,2126,2147,2155,2,3701,3850,3899,2,2039,2048,2062,2,2049,2063,2073,2,2080,2089,2104,2,2057,2054,2078,2,2003,1929,1828,2,1981,1962,1962,2,1974,1953,1945,2,399,250,201,2,2061,2052,2038,2,2051,2037,2027,2,2020,2011,1996,2,2043,2046,2022,2
0.397,2069,2072,2172,2,2119,2136,2137,2,2126,2145,2155,2,3704,3842,3899,2,2040,2045,2060,2,2052,2059,2072,2,2084,2086,2106,2,2061,2059,2079,2,2031,2028,1928,2,1981,1964,1963,2,1974,1955,1945,2,396,258,201,2,2060,2055,2040,2,2048,2041,2028,2,2016,2014,1994,2,2039,2041,2021,2
0.398,1863,1930,1859,2,2116,2135,2134,2,2120,2146,2153,2,3699,3850,3896,2,2035,2050,2060,2,2047,2067,2071,2,2079,2093,2103,2,2056,2059,2079,2,2237,2170,2241,2,1984,1965,1966,2,1980,1954,1947,2,401,250,204,2,2065,2050,2040,2,2053,2033,2029,2,2021,2007,1997,2,2044,2041,2021,2
0.399,1874,1541,1525,2,2113,2127,2128,2,2120,2139,2148,2,3699,3845,3891,2,2035,2045,2055,2,2047,2062,2066,2,2079,2088,2097,2,2056,2054,2075,2,2226,2559,2575,2,1987,1973,1972,2,1980,1961,1952,2,401,255,209,2,2065,2055,2045,2,2053,2038,2034,2,2021,2012,2003,2,2044,2046,2025,2
0.4,1752,1566,1525,2,2107,2125,2128,2,2114,2136,2148,2,3692,3842,3891,2,2029,2041,2055,2,2040,2058,2066,2,2072,2083,2097,2,2049,2048,2075,2,2348,2534,2575,2,1993,1975,1972,2,1986,1964,1952,2,408,258,209,2,2071,2059,2045,2,2060,2042,2034,2,2028,2017,2003,2,2051,2052,2025,2
0.401,1770,1566,1401,2,2106,2125,2122,2,2113,2136,2142,2,3693,3842,3885,2,2028,2041,2048,2,2038,2058,2059,2,2069,2083,2090,2,2047,2048,2066,2,2330,2534,2699,2,1994,1975,1978,2,1987,1964,1958,2,407,258,215,2,2072,2059,2052,2,2062,2042,2041,2,2031,2017,2010,2,2053,2052,2034,2
0.402,1776,1680,1512,2,2104,2123,2121,2,2110,2134,2141,2,3685,3839,3884,2,2024,2037,2048,2,2032,2053,2057,2,2063,2077,2086,2,2041,2042,2063,2,2324,2420,2588,2,1996,1977,1979,2,1990,1966,1959,2,415,261,216,2,2076,2063,2052,2,2068,2047,2043,2,2037,2023,2014,2,2059,2058,2037,2
0.403,1806,1787,1567,2,2103,2122,2120,2,2110,2133,2140,2,3688,3836,3884,2,2024,2034,2045,2,2033,2048,2054,2,2063,2072,2087,2,2042,2037,2061,2,2294,2313,2533,2,1997,1978,1980,2,1990,1967,1960,2,412,264,216,2,2076,2066,2055,2,2067,2052,2046,2,2037,2028,2013,2,2058,2063,2039,2
0.404,1885,1880,1717,2,2103,2123,2120,2,2111,2134,2140,2,3697,3842,3884,2,2027,2037,2046,2,2037,2052,2054,2,2067,2076,2084,2,2040,2042,2060,2,2215,2220,2383,2,1997,1977,1980,2,1989,1966,1960,2,403,258,216,2,2073,2063,2054,2,2063,2048,2046,2,2033,2024,2016,2,2060,2058,2040,2
0.405,1889,2036,2057,2,2103,2124,2124,2,2110,2134,2144,2,3691,3841,3890,2,2024,2036,2048,2,2032,2050,2056,2,2062,2073,2086,2,2040,2039,2061,2,2211,2064,2043,2,1997,1976,1976,2,1990,1966,1956,2,409,259,210,2,2076,2064,2052,2,2068,2050,2044,2,2038,2027,2014,2,2060,2061,2039,2
0.406,2010,2036,2315,2,2109,2124,2126,2,2116,2134,2144,2,3696,3841,3890,2,2028,2036,2048,2,2035,2050,2056,2,2066,2073,2086,2,2043,2039,2061,2,2090,2064,1785,2,1991,1976,1974,2,1984,1966,1956,2,404,259,210,2,2072,2064,2052,2,2065,2050,2044,2,2034,2027,2014,2,2057,2061,2039,2
0.407,2010,2412,2593,2,2109,2133,2131,2,2116,2143,2148,2,3696,3852,3894,2,2028,2043,2051,2,2035,2057,2059,2,2066,2081,2089,2,2043,2048,2066,2,2090,1688,1507,2,1991,1967,1969,2,1984,1957,1952,2,404,248,206,2,2072,2057,2049,2,2065,2043,2041,2,2034,2019,2011,2,2057,2052,2034,2
0.408,2114,2409,2593,2,2115,2135,2131,2,2123,2145,2148,2,3704,3853,3894,2,2034,2045,2051,2,2042,2060,2059,2,2073,2084,2089,2,2050,2049,2066,2,1986,1691,1507,2,1985,1965,1969,2,1977,1955,1952,2,396,247,206,2,2066,2055,2049,2,2058,2040,2041,2,2027,2016,2011,2,2050,2051,2034,2
0.409,2138,2409,2704,2,2118,2135,2137,2,2126,2145,2153,2,3707,3853,3899,2,2037,2045,2057,2,2046,2060,2066,2,2077,2084,2099,2,2056,2049,2073,2,1962,1691,1396,2,1982,1965,1963,2,1974,1955,1947,2,393,247,201,2,2063,2055,2043,2,2054,2040,2034,2,2023,2016,2001,2,2044,2051,2027,2
0.41,2060,2307,2579,2,2118,2137,2138,2,2126,2147,2154,2,3702,3854,3899,2,2037,2047,2059,2,2045,2062,2068,2,2076,2086,2100,2,2054,2050,2076,2,2040,1793,1521,2,1982,1963,1962,2,1974,1953,1946,2,398,246,201,2,2063,2053,2041,2,2055,2038,2032,2,2024,2014,2000,2,2046,2050,2024,2
0.411,2032,2210,2517,2,2118,2137,2139,2,2127,2147,2155,2,3706,3849,3900,2,2040,2045,2059,2,2049,2059,2068,2,2081,2084,2103,2,2059,2050,2077,2,2068,1890,1583,2,1982,1963,1961,2,1973,1953,1945,2,394,251,200,2,2060,2055,2041,2,2051,2041,2032,2,2019,2016,1997,2,2041,2050,2023,2
0.412,2026,2124,2364,2,2120,2138,2139,2,2129,2149,2155,2,3706,3856,3900,2,2040,2050,2060,2,2050,2066,2070,2,2083,2092,2102,2,2060,2058,2078,2,2074,1976,1736,2,1980,1962,1961,2,1971,1951,1945,2,394,244,200,2,2060,2050,2040,2,2050,2034,2030,2,2017,2008,1998,2,2040,2042,2022,2
0.413,1959,1959,2166,2,2120,2137,2138,2,2127,2149,2155,2,3706,3856,3899,2,2040,2052,2060,2,2050,2069,2071,2,2083,2096,2102,2,2060,2062,2080,2,2141,2141,1934,2,1980,1963,1962,2,1973,1951,1945,2,394,244,201,2,2060,2048,2040,2,2050,2031,2029,2,2017,2004,1998,2,2040,2038,2020,2
0.414,1871,1757,2166,2,2119,2134,2138,2,2126,2146,2155,2,3703,3852,3899,2,2040,2051,2060,2,2050,2068,2071,2,2083,2094,2102,2,2060,2059,2080,2,2229,2343,1934,2,1981,1966,1962,2,1974,1954,1945,2,397,248,201,2,2060,2049,2040,2,2050,2032,2029,2,2017,2006,1998,2,2040,2041,2020,2
0.415,1725,1757,1367,2,2114,2134,2128,2,2121,2146,2149,2,3699,3852,3891,2,2037,2051,2056,2,2047,2068,2067,2,2080,2094,2099,2,2058,2059,2075,2,2375,2343,2733,2,1986,1966,1972,2,1979,1954,1951,2,401,248,209,2,2063,2049,2044,2,2053,2032,2033,2,2020,2006,2001,2,2042,2041,2025,2
0.416,1753,1542,1146,2,2111,2129,2124,2,2117,2142,2145,2,3689,3848,3887,2,2031,2047,2053,2,2040,2064,2063,2,2073,2089,2094,2,2050,2054,2071,2,2347,2558,2954,2,1989,1971,1976,2,1983,1958,1955,2,411,252,213,2,2069,2053,2047,2,2060,2036,2037,2,2027,2011,2006,2,2050,2046,2029,2
0.417,1664,1571,967,2,2108,2126,2121,2,2114,2138,2142,2,3687,3840,3885,2,2028,2040,2049,2,2037,2056,2059,2,2069,2080,2094,2,2048,2046,2068,2,2436,2529,3133,2,1992,1974,1979,2,1986,1962,1958,2,413,260,215,2,2072,2060,2051,2,2063,2044,2041,2,2031,2020,2006,2,2052,2054,2032,2
0.418,1611,1533,1050,2,2106,2124,2119,2,2113,2137,2140,2,3694,3844,3883,2,2029,2041,2049,2,2040,2058,2058,2,2072,2082,2089,2,2043,2049,2065,2,2489,2567,3050,2,1994,1976,1981,2,1987,1963,1960,2,406,256,217,2,2071,2059,2051,2,2060,2042,2042,2,2028,2018,2011,2,2057,2051,2035,2
0.419,1650,1618,1245,2,2104,2123,2119,2,2111,2134,2139,2,3686,3840,3883,2,2025,2037,2046,2,2034,2053,2054,2,2065,2077,2086,2,2043,2043,2060,2,2450,2482,2855,2,1996,1977,1981,2,1989,1966,1961,2,414,260,217,2,2075,2063,2054,2,2066,2047,2046,2,2035,2023,2014,2,2057,2057,2040,2
0.419,1712,1618,1346,2,2103,2123,2119,2,2109,2134,2139,2,3685,3840,3883,2,2023,2037,2046,2,2031,2053,2054,2,2062,2077,2086,2,2039,2043,2060,2,2388,2482,2754,2,1997,1977,1981,2,1991,1966,1961,2,415,260,217,2,2077,2063,2054,2,2069,2047,2046,2,2038,2023,2014,2,2061,2057,2040,2
0.421,1712,1740,1496,2,2103,2123,2119,2,2109,2132,2139,2,3685,3842,3885,2,2023,2036,2045,2,2031,2051,2053,2,2062,2075,2084,2,2039,2042,2060,2,2388,2360,2604,2,1997,1977,1981,2,1991,1968,1961,2,415,258,215,2,2077,2064,2055,2,2069,2049,2047,2,2038,2025,2016,2,2061,2058,2040,2
0.422,1809,1930,1496,2,2105,2125,2119,2,2112,2134,2139,2,3692,3844,3885,2,2025,2037,2045,2,2032,2052,2053,2,2062,2075,2084,2,2039,2041,2060,2,2291,2170,2604,2,1995,1975,1981,2,1988,1966,1961,2,408,256,215,2,2075,2063,2055,2,2068,2048,2047,2,2038,2025,2016,2,2061,2059,2040,2
0.423,1916,1930,2204,2,2109,2125,2128,2,2116,2134,2145,2,3698,3844,3892,2,2029,2037,2049,2,2037,2052,2057,2,2067,2075,2087,2,2045,2041,2064,2,2184,2170,1896,2,1991,1975,1972,2,1984,1966,1955,2,402,256,208,2,2071,2063,2051,2,2063,2048,2043,2,2033,2025,2013,2,2055,2059,2036,2
0.424,1955,2105,2421,2,2111,2130,2132,2,2118,2139,2148,2,3695,3848,3895,2,2030,2040,2054,2,2036,2055,2062,2,2067,2078,2090,2,2044,2043,2068,2,2145,1995,1679,2,1989,1970,1968,2,1982,1961,1952,2,405,252,205,2,2070,2060,2046,2,2064,2045,2038,2,2033,2022,2010,2,2056,2057,2032,2
0.425,2042,2102,2597,2,2114,2133,2136,2,2122,2142,2151,2,3703,3846,3898,2,2035,2040,2054,2,2042,2054,2063,2,2073,2078,2095,2,2050,2044,2070,2,2058,1998,1503,2,1986,1967,1964,2,1978,1958,1949,2,397,254,202,2,2065,2060,2046,2,2058,2046,2037,2,2027,2022,2005,2,2050,2056,2030,2
0.426,2090,2159,2574,2,2117,2136,2139,2,2126,2145,2154,2,3714,3855,3900,2,2039,2047,2057,2,2047,2062,2066,2,2079,2087,2096,2,2055,2053,2073,2,2010,1941,1526,2,1983,1964,1961,2,1974,1955,1946,2,386,245,200,2,2061,2053,2043,2,2053,2038,2034,2,2021,2013,2004,2,2045,2047,2027,2
0.427,2048,2023,2429,2,2118,2138,2139,2,2126,2148,2155,2,3707,3859,3901,2,2039,2052,2058,2,2047,2068,2067,2,2079,2094,2097,2,2055,2060,2076,2,2052,2077,1671,2,1982,1962,1961,2,1974,1952,1945,2,393,241,199,2,2061,2048,2042,2,2053,2032,2033,2,2021,2006,2003,2,2045,2040,2024,2
0.428,2011,1934,2429,2,2119,2138,2139,2,2127,2148,2155,2,3704,3859,3901,2,2039,2053,2058,2,2049,2069,2067,2,2082,2094,2097,2,2058,2058,2076,2,2089,2166,1671,2,1981,1962,1961,2,1973,1952,1945,2,396,241,199,2,2061,2047,2042,2,2051,2031,2033,2,2018,2006,2003,2,2042,2042,2024,2
0.429,1951,1934,2100,2,2119,2138,2139,2,2127,2148,2155,2,3705,3859,3900,2,2040,2053,2060,2,2050,2069,2070,2,2083,2094,2102,2,2061,2058,2078,2,2149,2166,2000,2,1981,1962,1961,2,1973,1952,1945,2,395,241,200,2,2060,2047,2040,2,2050,2031,2030,2,2017,2006,1998,2,2039,2042,2022,2
0.43,1951,1776,1910,2,2119,2136,2137,2,2127,2147,2155,2,3705,3852,3899,2,2040,2052,2061,2,2050,2068,2071,2,2083,2101,2102,2,2061,2065,2079,2,2149,2324,2190,2,1981,1964,1963,2,1973,1953,1945,2,395,248,201,2,2060,2048,2039,2,2050,2032,2029,2,2017,1999,1998,2,2039,2035,2021,2
