Time (s),Sensor 1 - Short Channel
8.106231689453125e-05,2379
0.0012202262878417969,2355
0.0021209716796875,2407
0.003325939178466797,2462
0.004204988479614258,2462
0.005286216735839844,2535
0.006297111511230469,2626
0.007313966751098633,2754
0.00838923454284668,2795
0.008944272994995117,2795
0.009978055953979492,2716
0.010966062545776367,2669
0.012126922607421875,2669
0.013056039810180664,2625
0.014082193374633789,2560
0.01509404182434082,2449
0.016083955764770508,2279
0.017071247100830078,2318
0.018151283264160156,2318
0.01922893524169922,2423
0.020258188247680664,2468
0.02129197120666504,2516
0.022320270538330078,2548
0.023289203643798828,2548
0.024540185928344727,2754
0.024873018264770508,2770
0.025981903076171875,2804
0.026911020278930664,2753
0.027987003326416016,2714
0.028995037078857422,2677
0.030081987380981445,2636
0.031039953231811523,2528
0.032180070877075195,2528
0.03321409225463867,2463
0.03431200981140137,2487
0.035259246826171875,2511
0.03581595420837402,2585
0.03692007064819336,2585
0.037867069244384766,2644
0.03885006904602051,2688
0.0398561954498291,2762
0.04108691215515137,2836
0.04204607009887695,2828
0.04308199882507324,2849
0.04412412643432617,2769
0.045089006423950195,2732
0.046144962310791016,2695
0.04702305793762207,2673
0.04828906059265137,2613
0.04925894737243652,2470
0.04975414276123047,2403
0.050863027572631836,2403
0.05180811882019043,2497
0.052886962890625,2542
0.053830862045288086,2587
0.05506420135498047,2617
0.055941104888916016,2671
0.05750298500061035,2790
0.05807685852050781,2914
0.059084177017211914,2875
0.06006598472595215,2849
0.06113314628601074,2798
0.06211709976196289,2754
0.06268429756164551,2707
0.06372499465942383,2657
0.06464624404907227,2657
0.06582188606262207,2469
0.06680107116699219,2464
0.06801414489746094,2452
0.06892609596252441,2489
0.0699162483215332,2540
0.07093310356140137,2540
0.0719001293182373,2612
0.07303190231323242,2710
0.0748591423034668,2838
0.07516312599182129,2854
0.07610702514648438,2812
0.07667899131774902,2785
0.0776979923248291,2739
0.07877397537231445,2739
0.0797891616821289,2695
0.08072805404663086,2613
0.08212518692016602,2485
0.08289003372192383,2428
0.08385205268859863,2444
0.08485198020935059,2444
0.08589792251586914,2514
0.08697509765625,2547
0.08806300163269043,2584
0.08906817436218262,2608
0.08962416648864746,2608
0.09105801582336426,2818
0.09174013137817383,2822
0.09270596504211426,2822
0.09371590614318848,2770
0.09478306770324707,2724
0.09579706192016602,2677
0.09685707092285156,2622
0.09783816337585449,2502
0.0988779067993164,2502
0.099945068359375,2430
0.10104012489318848,2450
0.10204410552978516,2472
0.10303616523742676,2503
0.10358190536499023,2503
0.10467004776000977,2572
0.10564708709716797,2634
0.1066732406616211,2726
0.10775613784790039,2783
0.10918903350830078,2770
0.1097872257232666,2779
0.11092519760131836,2701
0.11185002326965332,2661
0.11286711692810059,2661
0.11382293701171875,2630
0.11493921279907227,2553
0.11594104766845703,2406
0.11653923988342285,2358
0.1176300048828125,2358
0.11860513687133789,2449
0.11960816383361816,2494
0.12080907821655273,2537
0.12177896499633789,2564
0.12276291847229004,2627
0.12375903129577637,2749
0.1259310245513916,2859
0.12650394439697266,2807
0.12684321403503418,2767
0.12795329093933105,2711
0.12890124320983887,2664
0.12993717193603516,2617
0.13058090209960938,2519
0.13152790069580078,2519
0.1325671672821045,2354
0.1336040496826172,2371
0.13457989692687988,2379
0.13575410842895508,2421
0.13671612739562988,2463
0.13779306411743164,2518
0.13883018493652344,2582
0.13971400260925293,2686
0.14083313941955566,2808
0.1419529914855957,2808
0.14289522171020508,2769
0.14357614517211914,2738
0.14460015296936035,2693
0.1455240249633789,2693
0.146528959274292,2623
0.1475541591644287,2536
0.14870405197143555,2405
0.1496591567993164,2357
0.15066218376159668,2388
0.1517171859741211,2388
0.15287494659423828,2474
0.15377092361450195,2513
0.15488910675048828,2552
0.1558370590209961,2571
0.15681195259094238,2620
0.1573960781097412,2755
0.15886211395263672,2765
0.15954828262329102,2765
0.1605539321899414,2717
0.16157913208007812,2672
0.16266608238220215,2627
0.1636369228363037,2600
0.16469907760620117,2470
0.16565823554992676,2470
0.16668486595153809,2365
0.16780805587768555,2400
0.16885709762573242,2432
0.16988420486450195,2471
0.1703660488128662,2471
0.17144107818603516,2546
0.17247414588928223,2624
0.17351698875427246,2624
0.17442727088928223,2707
0.1756448745727539,2707
0.1777021884918213,2719
0.17796921730041504,2654
0.1787271499633789,2619
0.17961502075195312,2619
0.18072009086608887,2588
0.18171310424804688,2497
0.18314695358276367,2353
0.18379902839660645,2346
0.1844310760498047,2346
0.18538117408752441,2427
0.18641996383666992,2469
0.18747901916503906,2511
0.18858003616333008,2536
0.18953704833984375,2606
0.1911940574645996,2731
0.19169092178344727,2839
0.19270706176757812,2785
0.1937551498413086,2785
0.19469213485717773,2718
0.19579124450683594,2660
0.19674110412597656,2607
0.19747614860534668,2458
0.19841718673706055,2458
0.1992812156677246,2294
0.20039010047912598,2321
0.20142698287963867,2340
0.20249700546264648,2383
0.20348215103149414,2427
0.2045881748199463,2477
0.2055349349975586,2534
0.2065410614013672,2641
0.2076730728149414,2641
0.2089700698852539,2674
0.21014094352722168,2656
0.21071505546569824,2635
0.21133017539978027,2576
0.21231508255004883,2576
0.21335601806640625,2534
0.2143869400024414,2444
0.21547913551330566,2313
0.216475248336792,2287
0.21750807762145996,2323
0.21846818923950195,2353
0.21962213516235352,2432
0.2206411361694336,2469
0.2216329574584961,2504
0.22281813621520996,2529
0.2236039638519287,2592
0.22475910186767578,2727
0.22657990455627441,2730
0.2268509864807129,2730
0.22737789154052734,2648
0.22831201553344727,2610
0.22944307327270508,2572
0.23050308227539062,2549
0.23143410682678223,2416
0.2324211597442627,2416
0.23347091674804688,2324
0.23453807830810547,2363
0.2355489730834961,2399
0.2366621494293213,2436
0.2376251220703125,2469
0.23824214935302734,2509
0.23920893669128418,2609
0.24031686782836914,2609
0.2413182258605957,2701
0.24234390258789062,2692
0.24341702461242676,2692
0.2445230484008789,2657
0.24535202980041504,2610
0.24648404121398926,2610
0.2474832534790039,2543
0.24848318099975586,2447
0.24957513809204102,2309
0.2505941390991211,2308
0.2512362003326416,2308
0.25225400924682617,2394
0.2533280849456787,2435
0.2543470859527588,2435
0.2552449703216553,2471
0.2564070224761963,2554
0.25752806663513184,2688
0.25841617584228516,2790
0.2595031261444092,2734
0.2604799270629883,2734
0.2615020275115967,2671
0.26250696182250977,2614
0.26349806785583496,2564
0.26460695266723633,2492
0.26514410972595215,2492
0.2661471366882324,2292
0.2672600746154785,2313
0.27567100524902344,2330
0.27636098861694336,2374
0.27660107612609863,2411
0.2767941951751709,2455
0.2769441604614258,2508
0.27707695960998535,2613
0.2772231101989746,2613
0.2774510383605957,2654
0.2775571346282959,2629
0.27779316902160645,2603
0.2783060073852539,2542
0.2790870666503906,2542
0.2800559997558594,2499
0.2812080383300781,2399
0.2827489376068115,2267
0.28330206871032715,2257
0.28462696075439453,2295
0.29153895378112793,2328
0.2917602062225342,2410
0.2919270992279053,2447
0.2920811176300049,2482
0.29258012771606445,2527
0.2927742004394531,2600
0.29290318489074707,2727
0.29303908348083496,2720
0.29317808151245117,2720
0.2944221496582031,2629
0.29509615898132324,2588
0.2960851192474365,2547
0.297166109085083,2521
0.29884791374206543,2487
0.29927802085876465,2337
0.3011641502380371,2277
0.3014540672302246,2326
0.3024618625640869,2368
0.3035142421722412,2409
0.30438709259033203,2446
0.3050050735473633,2486
0.30611515045166016,2602
0.307373046875,2602
0.30825018882751465,2737
0.30908203125,2705
0.31012821197509766,2684
0.3112051486968994,2637
0.31220412254333496,2584
0.3132212162017822,2584
0.3141651153564453,2496
0.31530117988586426,2398
0.3161799907684326,2265
0.31731295585632324,2280
0.31844496726989746,2321
0.3188779354095459,2371
0.31992506980895996,2421
0.3212580680847168,2421
0.3219871520996094,2463
0.3229820728302002,2556
0.3242340087890625,2693
0.3250770568847656,2724
0.3260788917541504,2682
0.32708096504211426,2682
0.32814598083496094,2589
0.32911109924316406,2550
0.33022117614746094,2515
0.3312549591064453,2434
0.3318910598754883,2434
0.3328580856323242,2250
0.33396100997924805,2278
0.3349571228027344,2278
0.3360152244567871,2328
0.3370811939239502,2379
0.33808302879333496,2433
0.33911705017089844,2506
0.3400750160217285,2626
0.34110307693481445,2626
0.3421151638031006,2681
0.34320902824401855,2649
0.3442091941833496,2619
0.34524011611938477,2588
0.345736026763916,2588
0.34676408767700195,2527
0.3478710651397705,2413
0.3489689826965332,2277
0.34994006156921387,2253
0.35108399391174316,2299
0.3520069122314453,2341
0.3530449867248535,2434
0.3541390895843506,2472
0.35520005226135254,2472
0.3561570644378662,2544
0.3571481704711914,2624
0.3582022190093994,2744
0.35877299308776855,2726
0.3598630428314209,2726
0.3608219623565674,2633
0.3619520664215088,2593
0.3628690242767334,2554
0.36396002769470215,2530
0.3649001121520996,2478
0.365955114364624,2331
0.3670310974121094,2284
0.36801886558532715,2333
0.36908507347106934,2376
0.3700549602508545,2419
0.3712010383605957,2455
0.37223196029663086,2491
0.37271809577941895,2691
0.3738739490509033,2691
0.3747870922088623,2782
0.3758578300476074,2735
0.3769211769104004,2701
0.3779268264770508,2651
0.37890005111694336,2608
0.37990403175354004,2561
0.3810150623321533,2458
0.38204002380371094,2362
0.3830242156982422,2238
0.38411498069763184,2265
0.3852250576019287,2314
0.3856792449951172,2367
0.3867340087890625,2422
0.38776493072509766,2422
0.3888051509857178,2494
0.38991403579711914,2590
0.39090824127197266,2720
0.39191603660583496,2747
0.39296412467956543,2699
0.393887996673584,2699
0.39488887786865234,2605
0.3959212303161621,2567
0.39697718620300293,2531
0.3980441093444824,2456
0.3990159034729004,2414
0.39957404136657715,2288
0.40072107315063477,2315
0.4017181396484375,2315
0.40284109115600586,2365
0.4037740230560303,2410
0.404832124710083,2458
0.40581202507019043,2489
0.40703892707824707,2621
0.40790605545043945,2621
0.40889406204223633,2674
0.4098970890045166,2639
0.4109611511230469,2603
0.411973237991333,2567
0.4125649929046631,2567
0.41368913650512695,2501
0.41473889350891113,2379
0.415679931640625,2379
0.41672706604003906,2327
0.41776299476623535,2344
0.4188110828399658,2366
0.4198760986328125,2437
0.42091798782348633,2467
0.4219210147857666,2467
0.4228842258453369,2550
0.4239671230316162,2629
0.4250171184539795,2745
0.4260239601135254,2721
0.4265470504760742,2721
0.42766308784484863,2614
0.4286048412322998,2567
0.42970800399780273,2523
0.43071413040161133,2501
0.4318430423736572,2435
0.4327549934387207,2289
0.4337191581726074,2258
0.43484997749328613,2309
0.43586301803588867,2309
0.436755895614624,2370
0.43831396102905273,2416
0.4389331340789795,2461
0.4394969940185547,2685
0.4405839443206787,2685
0.4415311813354492,2772
0.442608118057251,2718
0.4437692165374756,2675
0.44469499588012695,2620
0.44566917419433594,2574
0.446810245513916,2524
0.4477822780609131,2383
0.44875216484069824,2287
0.4498271942138672,2172
0.4508349895477295,2214
0.4519691467285156,2272
0.4528498649597168,2334
0.4534599781036377,2436
0.45451807975769043,2436
0.45574092864990234,2496
0.45656490325927734,2595
0.4576561450958252,2719
0.458693265914917,2710
0.4597170352935791,2675
0.46073389053344727,2641
0.4617149829864502,2564
0.4627571105957031,2533
0.46382808685302734,2503
0.46479201316833496,2423
0.4658060073852539,2380
0.46642518043518066,2267
0.4675590991973877,2303
0.46853208541870117,2303
0.46950602531433105,2395
0.47057414054870605,2435
0.4716789722442627,2478
0.47259998321533203,2509
0.4738481044769287,2645
0.474668025970459,2645
0.47573208808898926,2687
0.47669506072998047,2648
0.4777050018310547,2609
0.4788680076599121,2576
0.47986316680908203,2547
0.480316162109375,2513
0.4814929962158203,2387
0.4824380874633789,2387
0.48348212242126465,2324
0.48451995849609375,2345
0.48558902740478516,2371
0.4865579605102539,2405
0.4876720905303955,2449
0.4886600971221924,2449
0.489638090133667,2607
0.49072718620300293,2677
0.4918360710144043,2783
0.4927811622619629,2747
0.4933152198791504,2747
0.4944450855255127,2630
0.4953458309173584,2579
0.4964480400085449,2579
0.4974479675292969,2539
0.4985499382019043,2447
0.4995441436767578,2297
0.5005009174346924,2271
0.5015978813171387,2321
0.5026240348815918,2321
0.5036542415618896,2378
0.5047340393066406,2425
0.5057499408721924,2469
0.506810188293457,2573
0.5072801113128662,2573
0.5083780288696289,2719
0.5093979835510254,2680
0.5104179382324219,2647
0.5113861560821533,2607
0.5125691890716553,2567
0.5135030746459961,2524
0.5145511627197266,2364
0.5154628753662109,2273
0.5165591239929199,2273
0.5176072120666504,2291
0.5186738967895508,2327
0.519707202911377,2372
0.52028489112854,2450
0.5212950706481934,2450
0.5222752094268799,2495
0.5233120918273926,2595
0.5244338512420654,2716
0.5254909992218018,2713
0.5264861583709717,2665
0.5274679660797119,2621
0.5284311771392822,2537
0.5295350551605225,2508
0.5304992198944092,2508
0.5315351486206055,2396
0.5325870513916016,2346
0.5335681438446045,2237
0.534168004989624,2306
0.5353231430053711,2306
0.5363330841064453,2388
0.537269115447998,2427
0.5383312702178955,2467
0.5394251346588135,2505
0.5403902530670166,2561
0.5414509773254395,2696
0.5423741340637207,2691
0.5433809757232666,2640
0.5444800853729248,2590
0.5455620288848877,2549
0.5465211868286133,2516
0.5470900535583496,2480
0.548105001449585,2349
0.5491561889648438,2349
0.5501670837402344,2269
0.5512351989746094,2305
0.5523810386657715,2341
0.554236888885498,2382
0.5547080039978027,2428
0.5553221702575684,2428
0.5563030242919922,2611
0.5573339462280273,2678
0.5584251880645752,2773
0.5594849586486816,2720
0.560481071472168,2672
0.5611488819122314,2615
0.5621089935302734,2564
0.5631370544433594,2564
0.5642099380493164,2511
0.5651969909667969,2414
0.5663161277770996,2268
0.5672791004180908,2271
0.5683331489562988,2321
0.5693750381469727,2321
0.5704131126403809,2411
0.5714821815490723,2443
0.5725359916687012,2477
0.5734221935272217,2581
0.5739929676055908,2581
0.5750501155853271,2706
0.5761871337890625,2663
0.5771420001983643,2663
0.5781641006469727,2606
0.5791769027709961,2559
0.5801780223846436,2515
0.581247091293335,2322
0.5822770595550537,2238
0.5834381580352783,2238
0.5844061374664307,2266
0.5853991508483887,2309
0.5865201950073242,2360
0.5875163078308105,2400
0.588273286819458,2400
0.5890350341796875,2467
0.5900890827178955,2577
0.591292142868042,2706
0.59212327003479,2713
0.5931708812713623,2662
0.5942201614379883,2615
0.5952880382537842,2529
0.5962319374084473,2496
0.5972170829772949,2496
0.5982661247253418,2390
0.5994000434875488,2333
0.6004421710968018,2229
0.6009271144866943,2307
0.6020269393920898,2307
0.6029949188232422,2387
0.6040329933166504,2424
0.6049871444702148,2461
0.6060888767242432,2514
0.6070451736450195,2578
0.6081552505493164,2701
0.6092002391815186,2684
0.6101760864257812,2634
0.6116971969604492,2587
0.612307071685791,2548
0.6133050918579102,2517
0.6143701076507568,2485
0.6149110794067383,2260
0.6159741878509521,2260
0.617020845413208,2234
0.6180460453033447,2285
0.6190910339355469,2330
0.6208491325378418,2372
0.6216440200805664,2408
0.622175931930542,2449
0.6232061386108398,2637
0.6242151260375977,2694
0.6252999305725098,2773
0.6263370513916016,2716
0.6273090839385986,2658
0.6278772354125977,2597
0.628899097442627,2543
0.629896879196167,2543
0.6309189796447754,2435
0.6319139003753662,2342
0.6355180740356445,2206
0.6365199089050293,2219
0.6372590065002441,2274
0.6376922130584717,2274
0.6382169723510742,2371
0.6389040946960449,2407
0.6391470432281494,2442
0.6402671337127686,2517
0.6413528919219971,2544
0.6418249607086182,2644
0.6429429054260254,2608
0.6439599990844727,2608
0.6449909210205078,2558
0.6460049152374268,2516
0.6471002101898193,2478
0.6481289863586426,2392
0.6490979194641113,2285
0.6500961780548096,2285
0.6512041091918945,2302
0.6522109508514404,2332
0.6532349586486816,2371
0.6542148590087891,2403
0.655184268951416,2403
0.6559009552001953,2472
0.6568341255187988,2585
0.6579101085662842,2585
0.6589779853820801,2616
0.6600000858306885,2590
0.6609821319580078,2560
0.6620240211486816,2499
0.6630048751831055,2475
0.6640172004699707,2475
0.6651482582092285,2355
0.6660668849945068,2302
0.6672041416168213,2214
0.66817307472229,2263
0.668755054473877,2263
0.6721889972686768,2372
0.6728451251983643,2416
0.6732921600341797,2456
0.6755871772766113,2530
0.6758489608764648,2597
0.6760609149932861,2719
0.6762821674346924,2689
0.676889181137085,2636
0.6780552864074707,2636
0.679063081741333,2582
0.6801090240478516,2540
0.681333065032959,2502
0.6816730499267578,2261
0.6827781200408936,2261
0.6838300228118896,2245
0.6849091053009033,2298
0.6859111785888672,2345
0.6869299411773682,2384
0.688014030456543,2421
0.6889040470123291,2462
0.6899871826171875,2669
0.6909890174865723,2726
0.6920361518859863,2798
0.6930050849914551,2737
0.6940779685974121,2677
0.6951942443847656,2617
0.6957099437713623,2526
0.6967260837554932,2526
0.6978292465209961,2410
0.6987760066986084,2323
0.6998069286346436,2203
0.7009620666503906,2233
0.7018868923187256,2278
0.7029461860656738,2334
0.7039322853088379,2422
0.7050092220306396,2455
0.7060210704803467,2485
0.7070531845092773,2584
0.7081589698791504,2609
0.7086899280548096,2688
0.7097039222717285,2643
0.7106690406799316,2643
0.7117860317230225,2556
0.7127540111541748,2519
0.7138121128082275,2484
0.7147231101989746,2383
0.7158370018005371,2280
0.7169241905212402,2280
0.7178540229797363,2314
0.7188951969146729,2348
0.7200891971588135,2389
0.7211902141571045,2418
0.7220051288604736,2444
0.7226119041442871,2478
0.7235720157623291,2602
0.7246630191802979,2602
0.7255969047546387,2621
0.7266850471496582,2594
0.7277331352233887,2563
0.7287020683288574,2533
0.729830265045166,2498
0.7307660579681396,2498
0.7318041324615479,2297
0.7328770160675049,2257
0.7339661121368408,2190
0.7350671291351318,2248
0.7355151176452637,2248
0.7365901470184326,2368
0.7375669479370117,2413
0.7386889457702637,2413
0.7395992279052734,2517
0.7406630516052246,2596
0.7417280673980713,2714
0.7427351474761963,2673
0.7437291145324707,2619
0.7447412014007568,2619
0.745819091796875,2530
0.7467820644378662,2497
0.7478570938110352,2464
0.748831033706665,2359
0.7494411468505859,2359
0.7505490779876709,2293
0.7515630722045898,2326
0.7525901794433594,2361
0.7536959648132324,2399
0.7547562122344971,2427
0.7556719779968262,2460
0.7567591667175293,2669
0.7577311992645264,2719
0.7587499618530273,2719
0.7597692012786865,2674
0.7608871459960938,2621
0.76180100440979,2569
0.7624180316925049,2489
0.7634952068328857,2489
0.76450514793396,2343
0.7654290199279785,2262
0.766552209854126,2156
0.7676222324371338,2198
0.7686898708343506,2251
0.7696068286895752,2313
0.7706632614135742,2405
0.7717239856719971,2439
0.780109167098999,2469
0.8106241226196289,2571
0.8109571933746338,2603
0.8201301097869873,2669
0.8214809894561768,2589
0.8217480182647705,2589
0.8219161033630371,2516
0.822059154510498,2486
0.8234319686889648,2455
0.8236851692199707,2358
0.8238589763641357,2328
0.8239963054656982,2216
0.8242318630218506,2271
0.8244621753692627,2311
0.8246042728424072,2352
0.8247952461242676,2379
0.8249220848083496,2405
0.8250970840454102,2450
0.8253071308135986,2574
0.8254730701446533,2574
0.825671911239624,2602
0.8258440494537354,2568
0.8259608745574951,2533
0.8261029720306396,2502
0.826268196105957,2473
0.8264172077178955,2473
0.8266041278839111,2269
0.8267829418182373,2235
0.8269062042236328,2182
0.8270411491394043,2236
0.827178955078125,2284
0.8273169994354248,2346
0.8274390697479248,2397
0.828667163848877,2397
0.8288319110870361,2524
0.8289580345153809,2605
0.8290891647338867,2718
0.8292160034179688,2689
0.8293402194976807,2631
0.8294661045074463,2631
0.8295869827270508,2539
0.8297080993652344,2506
0.8298370838165283,2466
0.8299620151519775,2356
0.8300890922546387,2356
0.8302121162414551,2307
0.830333948135376,2340
0.8304600715637207,2340
0.8306031227111816,2387
0.8307268619537354,2423
0.8308470249176025,2460
0.8309659957885742,2685
0.831089973449707,2729
0.831212043762207,2729
0.8350222110748291,2643
0.8352921009063721,2598
0.8390610218048096,2550
0.8392939567565918,2515
0.8394720554351807,2515
0.8396332263946533,2323
0.8397650718688965,2247
0.839893102645874,2156
0.8400170803070068,2210
0.840142011642456,2267
0.8402621746063232,2330
0.8403871059417725,2425
0.8405110836029053,2456
0.840641975402832,2456
0.8407721519470215,2570
0.8436980247497559,2601
0.8442082405090332,2658
0.8448200225830078,2581
0.8465790748596191,2581
0.8468630313873291,2508
0.8470461368560791,2481
0.8472630977630615,2454
0.8485660552978516,2369
0.849412202835083,2326
0.8504271507263184,2220
0.8519830703735352,2292
0.8537981510162354,2338
0.8549439907073975,2338
0.8553290367126465,2385
0.8559701442718506,2426
0.8567061424255371,2501
0.8571839332580566,2710
0.8582191467285156,2710
0.8592250347137451,2675
0.8603460788726807,2621
0.8613071441650391,2571
0.862342119216919,2531
0.8633511066436768,2498
0.8643581867218018,2463
0.8653922080993652,2246
0.8664581775665283,2217
0.8674969673156738,2181
0.8685760498046875,2239
0.8695230484008789,2290
0.870844841003418,2350
0.8711569309234619,2430
0.8722419738769531,2430
0.8731410503387451,2613
0.8742561340332031,2666
0.8752923011779785,2750
0.8762569427490234,2700
0.8773722648620605,2649
0.8783440589904785,2589
0.8793430328369141,2501
0.8803801536560059,2469
0.8813760280609131,2409
0.8825089931488037,2318
0.8836121559143066,2305
0.8842041492462158,2276
0.8852441310882568,2317
0.8861088752746582,2317
0.8875272274017334,2396
0.8883090019226074,2426
0.8892102241516113,2458
0.890239953994751,2560
0.8913149833679199,2633
0.8923399448394775,2633
0.8933401107788086,2582
0.8943459987640381,2549
0.8954031467437744,2511
0.8964650630950928,2483
0.8974630832672119,2443
0.8980441093444824,2333
0.8991239070892334,2248
0.9002208709716797,2248
0.9011731147766113,2269
0.9020700454711914,2305
0.9033029079437256,2352
0.9045329093933105,2388
0.905238151550293,2427
0.9062361717224121,2427
0.9073002338409424,2626
0.9083058834075928,2640
0.9093930721282959,2674
0.910423994064331,2624
0.9109711647033691,2624
0.9120011329650879,2523
0.9130351543426514,2487
0.9140830039978027,2487
0.9151370525360107,2361
0.9160921573638916,2306
0.917137861251831,2210
0.9181721210479736,2287
0.9193000793457031,2331
0.9202880859375,2331
0.9211912155151367,2374
0.9222011566162109,2429
0.9234280586242676,2519
0.9243371486663818,2603
0.9249000549316406,2603
0.9259781837463379,2602
0.9270589351654053,2561
0.9280061721801758,2520
0.9290721416473389,2490
0.9302000999450684,2462
0.9311511516571045,2432
0.9321780204772949,2212
0.9331581592559814,2194
0.9343259334564209,2194
0.9352340698242188,2247
0.936413049697876,2299
0.9374370574951172,2357
0.9380879402160645,2434
0.9389472007751465,2434
0.9399991035461426,2632
0.9410009384155273,2685
0.9419891834259033,2759
0.9431459903717041,2700
0.9441280364990234,2642
0.9451589584350586,2580
0.9462010860443115,2488
0.9471869468688965,2440
0.9481799602508545,2356
0.9492349624633789,2266
0.950314998626709,2265
0.951275110244751,2257
0.9519271850585938,2336
0.9530942440032959,2336
0.9540338516235352,2407
0.9549791812896729,2432
0.9559941291809082,2459
0.9571220874786377,2546
0.9581270217895508,2564
0.9591050148010254,2641
0.9601800441741943,2574
0.9611818790435791,2535
0.9621679782867432,2494
0.9632608890533447,2465
0.9642219543457031,2409
0.9648311138153076,2284
0.9658470153808594,2205
0.9668450355529785,2205
0.9679780006408691,2254
0.9689269065856934,2288
0.9701039791107178,2328
0.9710500240325928,2364
0.9721291065216064,2426
0.9731431007385254,2426
0.9740481376647949,2638
0.9751479625701904,2644
0.9760329723358154,2664
0.9772181510925293,2614
0.9782259464263916,2571
0.9787561893463135,2515
0.9798159599304199,2474
0.9807260036468506,2474
0.981856107711792,2356
0.9830090999603271,2296
0.9840710163116455,2211
0.9850161075592041,2252
0.9859919548034668,2309
0.9870550632476807,2309
0.9882380962371826,2397
0.9891660213470459,2465
0.9901309013366699,2570
0.991096019744873,2648
0.9917318820953369,2648
0.9928300380706787,2622
0.9937589168548584,2575
0.9948489665985107,2575
0.9958651065826416,2526
0.9969110488891602,2488
0.9980020523071289,2451
0.9989690780639648,2207
0.9999852180480957,2194
1.0010640621185303,2194
1.0020310878753662,2278
1.0030930042266846,2317
1.0044300556182861,2365
1.0051891803741455,2396
1.005627155303955,2396
1.0067319869995117,2612
1.0078442096710205,2660
1.008815050125122,2723
1.0098249912261963,2662
1.0107851028442383,2603
1.0118739604949951,2545
1.0129430294036865,2462
1.0139389038085938,2392
1.0149750709533691,2392
1.0159120559692383,2282
1.0170650482177734,2275
1.0180301666259766,2269
1.018665075302124,2341
1.0197780132293701,2341
1.020700216293335,2405
1.0216550827026367,2431
1.022665023803711,2455
1.0237219333648682,2532
1.0248162746429443,2561
1.0259380340576172,2629
1.026853084564209,2557
1.0279412269592285,2519
1.0289232730865479,2478
1.029952049255371,2452
1.030947208404541,2381
1.0320839881896973,2245
1.0326991081237793,2122
1.033722162246704,2122
1.0347819328308105,2223
1.0357182025909424,2276
1.0368518829345703,2329
1.0379488468170166,2362
1.0387599468231201,2392
1.0398280620574951,2448
1.040822982788086,2653
1.0418291091918945,2651
1.0429120063781738,2657
1.0439329147338867,2605
1.0449059009552002,2557
1.0456719398498535,2502
1.0466570854187012,2463
1.0476281642913818,2463
1.04866623878479,2255
1.0497069358825684,2221
1.0508301258087158,2167
1.0517408847808838,2220
1.0527889728546143,2321
1.0538411140441895,2321
1.0548350811004639,2399
1.0558841228485107,2480
1.0568718910217285,2597
1.0579631328582764,2648
1.0590462684631348,2626
1.0594639778137207,2617
1.060455083847046,2567
1.0616540908813477,2567
1.0627131462097168,2514
1.0636510848999023,2473
1.0647742748260498,2421
1.0657479763031006,2316
1.0667309761047363,2274
1.0677502155303955,2274
1.068850040435791,2316
1.0698449611663818,2346
1.070850133895874,2387
1.0718860626220703,2411
1.072951078414917,2584
1.0735201835632324,2584
1.0745961666107178,2637
1.0756123065948486,2637
1.076509952545166,2598
1.0776572227478027,2555
1.0786550045013428,2507
1.0796689987182617,2436
1.0807700157165527,2348
1.0818231105804443,2348
1.0827820301055908,2188
1.083745002746582,2203
1.084942102432251,2217
1.0858960151672363,2258
1.08646821975708,2258
1.0874850749969482,2348
1.0885088443756104,2381
1.0896430015563965,2414
1.0905091762542725,2505
1.0916330814361572,2533
1.0927228927612305,2590
1.0937321186065674,2516
1.0947470664978027,2474
1.0956900119781494,2474
1.0966899394989014,2438
1.0978970527648926,2348
1.0988919734954834,2200
1.0993809700012207,2082
1.1004879474639893,2082
1.1014630794525146,2189
1.1025121212005615,2243
1.1035079956054688,2296
1.104625940322876,2331
1.1056911945343018,2366
1.1065919399261475,2438
1.1077501773834229,2622
1.1086721420288086,2603
1.1097850799560547,2603
1.110701084136963,2539
1.111781120300293,2474
1.112922191619873,2400
1.1133580207824707,2305
1.114469051361084,2305
1.1154630184173584,2081
1.1164531707763672,2048
1.1175742149353027,2003
1.1185810565948486,2052
1.119575023651123,2096
1.120609998703003,2153
1.1217131614685059,2230
1.1226880550384521,2330
1.1237010955810547,2453
1.1248021125793457,2492
1.1258320808410645,2466
1.126837968826294,2452
1.1273000240325928,2370
1.1283860206604004,2370
1.1294231414794922,2309
1.130460262298584,2282
1.1315901279449463,2219
1.1326379776000977,2118
1.1335461139678955,2118
1.1346302032470703,2102
1.1355550289154053,2180
1.1367549896240234,2233
1.1376209259033203,2290
1.1386680603027344,2326
1.1397340297698975,2401
1.1402251720428467,2553
1.141357183456421,2610
1.1424219608306885,2610
1.1433689594268799,2551
1.1444122791290283,2517
1.145510196685791,2480
1.1465721130371094,2454
1.1475090980529785,2344
1.1484460830688477,2344
1.1495780944824219,2183
1.1504981517791748,2213
1.151609182357788,2242
1.152662992477417,2281
1.1539041996002197,2327
1.1542730331420898,2381
1.1552340984344482,2417
1.1562318801879883,2417
1.1572721004486084,2542
1.1584069728851318,2573
1.1594750881195068,2621
1.1603682041168213,2584
1.161445140838623,2533
1.1624979972839355,2533
1.1635870933532715,2461
1.1645848751068115,2360
1.1656520366668701,2218
1.166705846786499,2177
1.1671581268310547,2177
1.168248176574707,2261
1.1694211959838867,2307
1.1702258586883545,2307
1.1713032722473145,2356
1.172431230545044,2417
1.1734189987182617,2514
1.1744818687438965,2702
1.1755199432373047,2678
1.1764211654663086,2678
1.1776461601257324,2575
1.1785202026367188,2528
1.1796669960021973,2479
1.1805920600891113,2452
1.1811771392822266,2452
1.1821811199188232,2228
1.183312177658081,2210
1.1843700408935547,2188
1.185225009918213,2244
1.1864299774169922,2295
1.1874842643737793,2352
1.1883890628814697,2420
1.1894550323486328,2526
1.190432071685791,2526
1.1914770603179932,2593
1.1925029754638672,2580
1.193542242050171,2566
1.1941170692443848,2489
1.1951112747192383,2489
1.1962502002716064,2430
1.1972122192382812,2384
1.198261022567749,2295
1.1993350982666016,2211
1.200315237045288,2216
1.2013590335845947,2214
1.2023370265960693,2296
1.2035009860992432,2341
1.2044970989227295,2386
1.2054100036621094,2412
1.2064719200134277,2486
1.2075462341308594,2620
1.2081241607666016,2687
1.2090671062469482,2687
1.210118055343628,2584
1.2111899852752686,2538
1.2121741771697998,2491
1.2132689952850342,2460
1.2143540382385254,2407
1.215345859527588,2274
1.2163152694702148,2147
1.2173409461975098,2191
1.2183330059051514,2230
1.21956205368042,2278
1.2205629348754883,2321
1.2210121154785156,2374
1.2220029830932617,2417
1.2230470180511475,2417
1.224095106124878,2619
1.2253050804138184,2622
1.2264671325683594,2638
1.2273259162902832,2589
1.2293281555175781,2529
1.2298202514648438,2529
1.2302830219268799,2452
1.2313511371612549,2344
1.2324330806732178,2204
1.2334542274475098,2198
1.234462022781372,2232
1.235152244567871,2271
1.2360560894012451,2321
1.237368106842041,2321
1.2381508350372314,2368
1.239166021347046,2445
1.2402219772338867,2562
1.241260051727295,2637
1.2422189712524414,2632
1.2432692050933838,2632
1.2442340850830078,2558
1.2453181743621826,2520
1.2464549541473389,2479
1.2473540306091309,2456
1.2480189800262451,2456
1.2491450309753418,2230
1.2500669956207275,2222
1.2511019706726074,2222
1.2521028518676758,2273
1.2531991004943848,2320
1.2542190551757812,2373
1.2552251815795898,2439
1.2563440799713135,2506
1.2573840618133545,2638
1.2578630447387695,2724
1.258925199508667,2724
1.2599310874938965,2621
1.2611219882965088,2572
1.2620890140533447,2523
1.263124942779541,2483
1.2641520500183105,2437
1.2651309967041016,2321
1.2661869525909424,2170
1.2671449184417725,2205
1.2682271003723145,2237
1.2694320678710938,2283
1.2704319953918457,2321
1.2708840370178223,2370
1.271934986114502,2405
1.2728781700134277,2405
1.273975133895874,2603
1.2749550342559814,2614
1.2760200500488281,2645
1.2771151065826416,2598
1.2780990600585938,2540
1.2791950702667236,2540
1.2801740169525146,2462
1.281191110610962,2353
1.282151222229004,2212
1.283189058303833,2180
1.2843010425567627,2215
1.2848780155181885,2254
1.2859070301055908,2304
1.2870452404022217,2304
1.2879250049591064,2352
1.2889652252197266,2413
1.2900400161743164,2509
1.2910311222076416,2594
1.292159080505371,2605
1.2931041717529297,2605
1.2941429615020752,2540
1.295125961303711,2503
1.2965891361236572,2461
1.2977380752563477,2437
1.2981061935424805,2437
1.2988553047180176,2209
1.299915075302124,2189
1.3008801937103271,2189
1.3019440174102783,2240
1.3031799793243408,2287
1.3041820526123047,2339
1.3051321506500244,2399
1.3060221672058105,2506
1.3070600032806396,2506
1.3081090450286865,2623
1.3090760707855225,2589
1.3103001117706299,2562
1.3111889362335205,2516
1.311819076538086,2516
1.3128750324249268,2420
1.3139221668243408,2366
1.3148510456085205,2275
1.315999984741211,2201
1.3202669620513916,2194
1.3207550048828125,2184
1.3209950923919678,2253
1.321134090423584,2288
1.3212552070617676,2288
1.3223180770874023,2320
1.323160171508789,2407
1.324113130569458,2544
1.3247439861297607,2624
1.3257222175598145,2624
1.3268611431121826,2522
1.3278121948242188,2475
1.32883620262146,2428
1.3299431800842285,2397
1.3308939933776855,2335
1.3319449424743652,2206
1.3329780101776123,2072
1.3340239524841309,2117
1.3350489139556885,2117
1.3361589908599854,2175
1.3372399806976318,2231
1.3381083011627197,2291
1.3387341499328613,2364
1.3398799896240234,2364
1.3408570289611816,2571
1.3417260646820068,2575
1.3429229259490967,2590
1.343940019607544,2537
1.344980001449585,2495
1.3460299968719482,2439
1.346985101699829,2371
1.3503119945526123,2260
1.351619005203247,2122
1.3519890308380127,2097
1.352281093597412,2139
1.3530371189117432,2183
1.35337495803833,2237
1.3544321060180664,2237
1.3548011779785156,2320
1.3558251857757568,2388
1.3568460941314697,2496
1.3579041957855225,2573
1.358931064605713,2563
1.3599071502685547,2563
1.3610670566558838,2478
1.3620049953460693,2435
1.3630380630493164,2392
1.3640780448913574,2367
1.3650522232055664,2318
1.3656680583953857,2170
1.3667221069335938,2149
1.367691993713379,2149
1.3686950206756592,2194
1.369880199432373,2238
1.3708391189575195,2288
1.3718211650848389,2319
1.3728392124176025,2446
1.373831033706665,2446
1.3748321533203125,2577
1.3759410381317139,2544
1.3770182132720947,2517
1.3780570030212402,2472
1.3785929679870605,2472
1.3795640468597412,2381
1.3806180953979492,2305
1.381598949432373,2305
1.3828020095825195,2190
1.383793830871582,2178
1.3847770690917969,2172
1.3858680725097656,2201
1.3868310451507568,2250
1.387840986251831,2250
1.3888561725616455,2317
1.3898749351501465,2406
1.3909790515899658,2534
1.3920700550079346,2555
1.392638921737671,2555
1.3935821056365967,2468
1.3946340084075928,2425
1.39569091796875,2380
1.3967008590698242,2356
1.3977839946746826,2286
1.3987269401550293,2145
1.3997869491577148,2026
1.400744915008545,2077
1.4019808769226074,2077
1.4031531810760498,2145
1.4041590690612793,2201
1.4050371646881104,2258
1.4055321216583252,2353
1.4065051078796387,2353
1.4076790809631348,2550
1.4086871147155762,2548
1.4096782207489014,2551
1.4107279777526855,2496
1.4117140769958496,2450
1.4126851558685303,2394
1.413727045059204,2326
1.4146430492401123,2207
1.4157590866088867,2207
1.4168729782104492,2146
1.4179162979125977,2162
1.4188909530639648,2185
1.4198899269104004,2249
1.4205031394958496,2249
1.4215211868286133,2297
1.422579050064087,2375
1.4235379695892334,2490
1.4246690273284912,2536
1.4256219863891602,2511
1.4266669750213623,2500
1.427603006362915,2416
1.4287018775939941,2379
1.4296960830688477,2341
1.4308340549468994,2319
1.431777000427246,2258
1.4323740005493164,2118
1.4334280490875244,2110
1.4344229698181152,2110
1.4355430603027344,2185
1.436629056930542,2222
1.437633991241455,2267
1.4386732578277588,2293
1.4396018981933594,2340
1.4406540393829346,2472
1.4416701793670654,2571
1.4428720474243164,2528
1.4437391757965088,2492
1.444749116897583,2448
1.4457850456237793,2410
1.4463129043579102,2367
1.4473352432250977,2268
1.4485220909118652,2268
1.4494540691375732,2100
1.4505951404571533,2118
1.4515900611877441,2138
1.4526190757751465,2183
1.453963041305542,2240
1.4547100067138672,2240
1.4555809497833252,2314
1.4566311836242676,2417
1.45766019821167,2545
1.458724021911621,2550
1.459697961807251,2513
1.4603400230407715,2472
1.4613492488861084,2424
1.462393045425415,2424
1.4633760452270508,2382
1.4644370079040527,2282
1.465529203414917,2135
1.4664802551269531,2093
1.4674890041351318,2132
1.4685518741607666,2132
1.4696462154388428,2223
1.470778226852417,2262
1.4720640182495117,2305
1.4726970195770264,2345
1.4736850261688232,2531
1.4743120670318604,2531
1.4753751754760742,2533
1.4763782024383545,2533
1.4778029918670654,2489
1.4792749881744385,2446
1.479665994644165,2398
1.4804978370666504,2341
1.4815030097961426,2217
1.482590913772583,2217
1.4835572242736816,2139
1.4847700595855713,2173
1.4857542514801025,2212
1.4866831302642822,2252
1.4872381687164307,2252
1.4883041381835938,2331
1.4892852306365967,2437
1.4903290271759033,2437
1.491396188735962,2509
1.4924380779266357,2509
1.4937169551849365,2506
1.494413137435913,2438
1.4954581260681152,2404
1.4965829849243164,2404
1.4976201057434082,2366
1.4986748695373535,2278
1.4995698928833008,2137
1.5005979537963867,2139
1.5012061595916748,2139
1.5022971630096436,2227
1.5033631324768066,2271
1.5043411254882812,2318
1.5053870677947998,2340
1.506453037261963,2406
1.5074009895324707,2545
1.5084431171417236,2628
1.5094351768493652,2576
1.5105159282684326,2576
1.5115931034088135,2518
1.5125272274017334,2467
1.513573169708252,2418
1.514185905456543,2226
1.5152308940887451,2226
1.516327142715454,2097
1.5172350406646729,2134
1.5182909965515137,2170
1.5193250179290771,2212
1.5202901363372803,2253
1.521294116973877,2309
1.5226480960845947,2374
1.5234129428863525,2480
1.5244390964508057,2609
1.5255050659179688,2601
1.5264739990234375,2562
1.5271461009979248,2521
1.5281860828399658,2474
1.5291168689727783,2474
1.5301899909973145,2410
1.5312120914459229,2310
1.5323710441589355,2172
1.5333671569824219,2134
1.5343220233917236,2173
1.5353872776031494,2218
1.536311149597168,2311
1.5374090671539307,2353
1.538444995880127,2395
1.5394330024719238,2445
1.5405619144439697,2516
1.5410470962524414,2643
1.542112112045288,2635
1.5430331230163574,2635
1.5441081523895264,2551
1.5451760292053223,2511
1.5462169647216797,2466
1.5472939014434814,2441
1.548341989517212,2306
1.549349069595337,2306
1.550274133682251,2229
1.5513451099395752,2265
1.5524799823760986,2305
1.5533812046051025,2336
1.554455041885376,2369
1.5550141334533691,2413
1.5560500621795654,2534
1.5570921897888184,2534
1.5580799579620361,2623
1.5591020584106445,2610
1.5602190494537354,2599
1.5612680912017822,2566
1.5622880458831787,2520
1.5632288455963135,2520
1.5642402172088623,2426
1.5654220581054688,2330
1.5663340091705322,2198
1.567439079284668,2215
1.5679512023925781,2215
1.5689380168914795,2323
1.5699660778045654,2372
1.571000099182129,2372
1.5721490383148193,2417
1.5732030868530273,2510
1.5742032527923584,2651
1.5752320289611816,2732
1.5763020515441895,2678
1.5772221088409424,2678
1.5782511234283447,2581
1.5792922973632812,2542
1.5804338455200195,2505
1.58148193359375,2418
1.5819520950317383,2418
1.5829880237579346,2241
1.5839800834655762,2275
1.5850932598114014,2308
1.586055040359497,2355
1.5871391296386719,2397
1.588136911392212,2448
1.589104175567627,2515
1.5902080535888672,2630
1.5912420749664307,2630
1.5922901630401611,2656
1.5932412147521973,2634
1.5942881107330322,2602
1.5949339866638184,2532
1.5959150791168213,2532
1.5969200134277344,2491
1.598128080368042,2385
1.5991151332855225,2252
1.599998950958252,2217
1.600956916809082,2217
1.6018931865692139,2217
1.6030259132385254,2217
1.6038861274719238,2217
1.604870080947876,2217
1.605905294418335,2217
1.6069481372833252,2217
1.6079471111297607,2217
1.608886957168579,2217
1.6102001667022705,2217
1.6111111640930176,2284
1.6121249198913574,2301
1.6131441593170166,2335
1.614267110824585,2340
1.6152472496032715,2304
1.6158270835876465,2197
1.616868019104004,2221
1.6178569793701172,2221
1.6189100742340088,2333
1.6200320720672607,2381
1.6211471557617188,2433
1.6221082210540771,2466
1.6230430603027344,2651
1.6240801811218262,2651
1.6250240802764893,2739
1.6261420249938965,2694
1.6271350383758545,2653
1.6281561851501465,2611
1.6292011737823486,2571
1.6297872066497803,2525
1.6308212280273438,2411
1.6318280696868896,2411
1.6328620910644531,2310
1.6339690685272217,2311
1.6350140571594238,2320
1.6362340450286865,1965
1.6370611190795898,1498
1.6380019187927246,1498
1.6390719413757324,856
1.6400701999664307,618
1.641139030456543,438
1.6422479152679443,307
1.6431002616882324,214
1.6441030502319336,150
1.67388916015625,665
1.675036907196045,665
1.6759631633758545,1880
1.6769521236419678,2383
1.6780431270599365,2855
1.678981065750122,3169
1.6796479225158691,3169
1.6807291507720947,3608
1.6816928386688232,3753
1.682732105255127,3753
1.6837701797485352,3851
1.7653391361236572,3690
1.7663600444793701,3690
1.767397165298462,3697
1.7684659957885742,3735
1.7695679664611816,3782
1.7708301544189453,3814
1.7715342044830322,3833
1.7725849151611328,3859
1.7777631282806396,3853
1.7787220478057861,3805
1.7793211936950684,3724
1.7803421020507812,3724
1.7813420295715332,3528
1.7824089527130127,3449
1.7834959030151367,3353
1.784682035446167,3390
1.785526990890503,3432
1.7867660522460938,3483
1.787621259689331,3550
1.788548231124878,3572
1.7896690368652344,3572
1.790572166442871,3633
1.7916889190673828,3646
1.7927842140197754,3685
1.7932140827178955,3597
1.794288158416748,3597
1.795313835144043,3509
1.796370029449463,3474
1.7973339557647705,3441
1.7984330654144287,3346
1.799489974975586,3286
1.800534963607788,3177
1.801447868347168,3224
1.8025341033935547,3254
1.8035409450531006,3254
1.8045060634613037,3285
1.8056702613830566,3322
1.8066620826721191,3386
1.8077292442321777,3454
1.8081800937652588,3454
1.809286117553711,3442
1.8103179931640625,3392
1.8113441467285156,3341
1.8123362064361572,3298
1.8134450912475586,3261
1.8145511150360107,3219
1.815521001815796,2966
1.8164138793945312,2929
1.8174810409545898,2929
1.8185012340545654,2960
1.8195440769195557,2994
1.8206379413604736,3035
1.824186086654663,3061
1.8735370635986328,3061
1.8737962245941162,3247
1.8740160465240479,3297
1.8741979598999023,3297
1.8744099140167236,3251
1.8745501041412354,3196
1.8746991157531738,3132
1.8748431205749512,3029
1.8749639987945557,2978
1.875108242034912,2978
1.8752262592315674,2845
1.875412940979004,2810
1.8756029605865479,2781
1.8757319450378418,2806
1.8759181499481201,2806
1.8760771751403809,2878
1.8762810230255127,2900
1.8764910697937012,2921
1.8767120838165283,3019
1.8768680095672607,3048
1.8771069049835205,3115
1.8773088455200195,3023
1.8774731159210205,2972
1.877702236175537,2972
1.877845048904419,2919
1.8779802322387695,2833
1.8781728744506836,2700
1.8783290386199951,2627
1.8785340785980225,2627
1.878727912902832,2646
1.8788821697235107,2676
1.8792061805725098,2712
1.8794770240783691,2735
1.8804500102996826,2754
1.8871359825134277,2779
1.887963056564331,2987
1.888491153717041,2992
1.8889169692993164,2992
1.8890759944915771,2933
1.8895339965820312,2876
1.8897490501403809,2813
1.890058994293213,2733
1.8902480602264404,2733
1.8903741836547852,2512
1.8905231952667236,2467
1.8906402587890625,2404
1.8907461166381836,2460
1.890897274017334,2510
1.8910081386566162,2568
1.8911139965057373,2645
1.8913280963897705,2709
1.8914942741394043,2800
1.8916161060333252,2863
1.891753911972046,2857
1.8920519351959229,2857
1.8922319412231445,2766
1.8923709392547607,2766
1.8926010131835938,2689
1.892721176147461,2660
1.892819881439209,2630
1.8929369449615479,2529
1.8930690288543701,2499
1.8931901454925537,2435
1.8933501243591309,2486
1.8935000896453857,2521
1.8936610221862793,2561
1.8938241004943848,2581
1.893977165222168,2643
1.894167184829712,2765
1.8943140506744385,2830
1.8944330215454102,2830
1.8945600986480713,2764
1.8946959972381592,2717
1.8951621055603027,2668
1.8963069915771484,2628
1.8971929550170898,2553
1.8982131481170654,2553
1.899280071258545,2342
1.9004240036010742,2345
1.9013090133666992,2348
1.9025158882141113,2386
1.9035022258758545,2421
1.9041509628295898,2473
1.9052159786224365,2506
1.906083106994629,2506
1.9072020053863525,2620
1.9080801010131836,2663
1.9091792106628418,2727
1.9100630283355713,2689
1.9111769199371338,2634
1.9121789932250977,2634
1.9131419658660889,2553
1.9141991138458252,2459
1.915389060974121,2324
1.9162721633911133,2266
1.9169299602508545,2266
1.9179530143737793,2322
1.9191689491271973,2362
1.9200451374053955,2362
1.9209589958190918,2402
1.9220030307769775,2436
1.9230682849884033,2487
1.9240541458129883,2712
1.9251761436462402,2713
1.9261441230773926,2713
1.9271140098571777,2654
1.9281401634216309,2599
1.9292809963226318,2542
1.9302589893341064,2509
1.9308521747589111,2509
1.9318690299987793,2274
1.9329500198364258,2230
1.9339590072631836,2180
1.9351191520690918,2238
1.9365670680999756,2289
1.937319278717041,2348
1.9381000995635986,2426
1.9390840530395508,2508
1.9401021003723145,2508
1.941148281097412,2609
1.9421889781951904,2611
1.9432299137115479,2614
1.9438400268554688,2537
1.9448320865631104,2537
1.9458770751953125,2469
1.946972131729126,2445
1.9479219913482666,2408
1.949092149734497,2291
1.949958086013794,2271
1.950995922088623,2233
1.95206618309021,2302
1.9531440734863281,2342
1.954087257385254,2384
1.955104112625122,2409
1.9561820030212402,2481
1.957185983657837,2605
1.957698106765747,2707
1.9587700366973877,2707
1.959787130355835,2609
1.9608981609344482,2558
1.961920976638794,2508
1.9629812240600586,2471
1.964073896408081,2433
1.9649701118469238,2339
1.9660611152648926,2160
1.967217206954956,2183
1.9681389331817627,2205
1.9691290855407715,2249
1.9702510833740234,2290
1.9708442687988281,2344
1.971796989440918,2381
1.9727699756622314,2381
1.9738130569458008,2572
1.974844217300415,2596
1.9760282039642334,2639
1.976935863494873,2591
1.978100061416626,2531
1.9790520668029785,2531
1.9799330234527588,2447
1.9810349941253662,2340
1.982023000717163,2201
1.9831359386444092,2162
1.9843010902404785,2189
1.9848499298095703,2222
1.9861299991607666,2270
1.9887239933013916,2270
1.9891152381896973,2349
1.9893600940704346,2384
1.990567922592163,2454
1.9909570217132568,2550
1.9918761253356934,2571
1.9930732250213623,2571
1.9939510822296143,2509
1.9949891567230225,2474
1.996000051498413,2434
1.9971261024475098,2416
1.998171091079712,2374
1.998702049255371,2225
1.9997310638427734,2181
2.0007951259613037,2181
2.001772165298462,2223
2.0030760765075684,2265
2.00384521484375,2315
2.0048940181732178,2348
2.0059051513671875,2456
2.0069639682769775,2456
2.007960081100464,2611
2.008965253829956,2587
2.0100250244140625,2567
2.0110719203948975,2515
2.0120959281921387,2425
2.0126168727874756,2425
2.0136499404907227,2385
2.0146701335906982,2385
2.0157220363616943,2256
2.017132043838501,2219
2.0177972316741943,2180
2.018857955932617,2202
2.0199239253997803,2246
2.0208749771118164,2246
2.0218989849090576,2303
2.0233421325683594,2393
2.0255119800567627,2522
2.0260751247406006,2561
2.0270910263061523,2561
2.0274739265441895,2483
2.0277161598205566,2435
2.0288760662078857,2435
2.02982497215271,2387
2.03075909614563,2317
2.0317161083221436,2198
2.032802104949951,2019
2.033860206604004,2053
2.034914016723633,2053
2.0364222526550293,2155
2.0369348526000977,2203
2.038007974624634,2254
2.038985013961792,2285
2.0395560264587402,2285
2.040600061416626,2506
2.0416371822357178,2526
2.0426700115203857,2526
2.043713092803955,2483
2.0446929931640625,2441
2.045952081680298,2395
2.046753168106079,2342
2.0477490425109863,2224
2.0489070415496826,2224
2.0497820377349854,2116
2.0507891178131104,2150
2.051914930343628,2187
2.0529661178588867,2229
2.0535640716552734,2229
2.054516077041626,2319
2.055493116378784,2377
2.056579113006592,2377
2.0575711727142334,2474
2.058609962463379,2500
2.0596201419830322,2530
2.060636281967163,2465
2.0616729259490967,2430
2.0627739429473877,2430
2.063804864883423,2398
2.0648410320281982,2312
2.065805196762085,2169
2.0668201446533203,2144
2.0673961639404297,2144
2.0687880516052246,2223
2.0696072578430176,2265
2.0705080032348633,2310
2.07151198387146,2340
2.072615146636963,2404
2.0736329555511475,2522
2.0746281147003174,2656
2.0756101608276367,2613
2.0767481327056885,2613
2.0776922702789307,2547
2.078796148300171,2490
2.0797781944274902,2431
2.0807790756225586,2393
2.0813612937927246,2393
2.0825021266937256,2161
2.0835001468658447,2157
2.084465980529785,2151
2.0856282711029053,2194
2.0867421627044678,2234
2.087580919265747,2287
2.0885961055755615,2348
2.0895779132843018,2458
2.090620279312134,2458
2.0916130542755127,2509
2.0926990509033203,2489
2.09367299079895,2465
2.0943329334259033,2388
2.095482110977173,2388
2.096392869949341,2335
2.0974409580230713,2257
2.0983691215515137,2140
2.0995261669158936,2076
2.1005492210388184,2089
2.1015050411224365,2104
2.1026129722595215,2194
2.1036410331726074,2241
2.104583978652954,2241
2.105633020401001,2282
2.106684923171997,2367
2.107761859893799,2504
2.108323097229004,2556
2.109286069869995,2556
2.110427141189575,2471
2.111417055130005,2430
2.112387180328369,2387
2.1134321689605713,2361
2.1144731044769287,2308
2.1156060695648193,2164
2.1165611743927,2058
2.117568016052246,2108
2.1186182498931885,2154
2.1196651458740234,2202
2.1206860542297363,2243
2.121696949005127,2294
2.122205972671509,2412
2.1232850551605225,2412
2.1243231296539307,2577
2.1253280639648438,2565
2.126289129257202,2558
2.1274330615997314,2510
2.1284899711608887,2470
2.129415988922119,2415
2.130513906478882,2350
2.1314680576324463,2238
2.1324880123138428,2101
2.1336052417755127,2088
2.1346800327301025,2128
2.1356658935546875,2173
2.1363329887390137,2259
2.1373231410980225,2259
2.138335943222046,2317
2.1393611431121826,2402
2.14068603515625,2520
2.1413910388946533,2570
2.1424272060394287,2538
2.143761157989502,2514
2.144577980041504,2426
2.1455230712890625,2387
2.1466050148010254,2346
2.1475839614868164,2314
2.1486170291900635,2249
2.1491780281066895,2108
2.1501071453094482,2108
2.151211977005005,2108
2.1524081230163574,2186
2.15346622467041,2225
2.1543538570404053,2272
2.1553800106048584,2301
2.1563260555267334,2346
2.1573822498321533,2485
2.158468008041382,2569
2.1594419479370117,2525
2.1604652404785156,2482
2.1615281105041504,2438
2.162537097930908,2402
2.163159132003784,2359
2.1641900539398193,2245
2.1651551723480225,2245
2.1662380695343018,2083
2.1672370433807373,2099
2.1683592796325684,2119
2.169447183609009,2160
2.170318126678467,2239
2.171325922012329,2239
2.1724960803985596,2296
2.17338490486145,2397
2.174438238143921,2525
2.175508975982666,2528
2.176483154296875,2487
2.1770858764648438,2442
2.1780669689178467,2391
2.179119110107422,2391
2.180169105529785,2323
2.1812050342559814,2221
2.182194948196411,2080
2.183375120162964,2038
2.1842312812805176,2109
2.1853089332580566,2109
2.1862690448760986,2194
2.187274932861328,2231
2.188444137573242,2270
2.1894590854644775,2323
2.1904709339141846,2386
2.191002130508423,2509
2.1921300888061523,2501
2.1931161880493164,2501
2.1941299438476562,2416
2.1950788497924805,2376
2.1962320804595947,2332
2.197326183319092,2306
2.198310136795044,2168
2.1993579864501953,2168
2.200249195098877,2080
2.2012510299682617,2113
2.202308177947998,2148
2.203361988067627,2179
2.2046310901641846,2203
2.2049741744995117,2238
2.2059900760650635,2353
2.2071330547332764,2353
2.2081260681152344,2485
2.209127902984619,2460
2.210235118865967,2439
2.211217164993286,2399
2.2122209072113037,2349
2.213202953338623,2349
2.2143192291259766,2255
2.2153332233428955,2158
2.216334104537964,2029
2.217383861541748,2050
2.218337059020996,2083
2.218945026397705,2131
2.220025062561035,2182
2.221129894256592,2182
2.2220170497894287,2222
2.2230710983276367,2315
2.2241580486297607,2450
2.2251510620117188,2480
2.2262179851531982,2438
2.2271580696105957,2438
2.2281930446624756,2352
2.2292091846466064,2316
2.2303969860076904,2280
2.2313270568847656,2191
2.232422113418579,2038
2.232889175415039,2038
2.233916997909546,2064
2.23502516746521,2064
2.235954999923706,2112
2.2370591163635254,2160
2.23808217048645,2212
2.2391860485076904,2242
2.2401881217956543,2372
2.2411699295043945,2372
2.2421181201934814,2434
2.243180990219116,2401
2.244293212890625,2367
2.245251178741455,2333
2.24590802192688,2333
2.2469100952148438,2272
2.248150110244751,2151
2.2491540908813477,2151
2.24991512298584,2091
2.2510199546813965,2101
2.252074956893921,2118
2.2530739307403564,2142
2.25405216217041,2179
2.255131244659424,2179
2.2561349868774414,2292
2.257211208343506,2370
2.2582809925079346,2481
2.2592179775238037,2461
2.259793281555176,2461
2.2608702182769775,2363
2.26192307472229,2323
2.262885093688965,2323
2.26396107673645,2286
2.2649950981140137,2207
2.266062021255493,2063
2.2671029567718506,2020
2.268031120300293,2073
2.269198179244995,2073
2.2710540294647217,2134
2.2715141773223877,2182
2.2721641063690186,2230
2.273198127746582,2329
2.27372407913208,2329
2.27486515045166,2491
2.275909185409546,2459
2.276921033859253,2431
2.2779431343078613,2385
2.2789900302886963,2349
2.2800309658050537,2307
2.2811009883880615,2195
2.282078981399536,2091
2.2831192016601562,2091
2.2841029167175293,2089
2.285156011581421,2119
2.2861602306365967,2161
2.2871432304382324,2195
2.287734031677246,2195
2.288802146911621,2262
2.2898590564727783,2370
2.2908129692077637,2491
2.2919349670410156,2505
2.2929530143737793,2463
2.2939231395721436,2422
2.2950122356414795,2339
2.295944929122925,2305
2.297018051147461,2305
2.298038959503174,2194
2.299165964126587,2123
2.300126075744629,2013
2.3007218837738037,2071
2.3017001152038574,2071
2.3027710914611816,2157
2.3038148880004883,2198
2.304749011993408,2240
2.3059771060943604,2264
2.306981086730957,2332
2.3079311847686768,2466
2.30899715423584,2484
2.3099708557128906,2434
2.310927152633667,2434
2.3120460510253906,2380
2.3130080699920654,2337
2.314148187637329,2292
2.3146328926086426,2048
2.315706253051758,2048
2.3166472911834717,1978
2.3176651000976562,2029
2.3187520503997803,2077
2.31982421875,2121
2.3209080696105957,2163
2.3219151496887207,2211
2.322956085205078,2366
2.3239760398864746,2452
2.3249311447143555,2548
2.325899124145508,2511
2.3269500732421875,2456
2.32806396484375,2397
2.328598976135254,2303
2.3296289443969727,2303
2.3306832313537598,2250
2.331759214401245,2143
2.3326971530914307,2009
2.3337788581848145,2017
2.3348889350891113,2049
2.33583402633667,2093
2.33708119392395,2177
2.3379600048065186,2206
2.3389580249786377,2236
2.3399951457977295,2342
2.3409900665283203,2382
2.3419761657714844,2475
2.3425421714782715,2412
2.3435840606689453,2412
2.344660997390747,2333
2.345716953277588,2300
2.346712112426758,2265
2.3478200435638428,2219
2.3487870693206787,2162
2.3497390747070312,2027
2.3508222103118896,2045
2.351884126663208,2089
2.3528740406036377,2136
2.3538811206817627,2169
2.355001211166382,2198
2.3560080528259277,2234
2.356544017791748,2446
2.357619047164917,2446
2.3586511611938477,2484
2.3596999645233154,2435
2.360633134841919,2390
2.3616790771484375,2348
2.3626999855041504,2315
2.3637120723724365,2276
2.3648011684417725,2072
2.3658859729766846,2012
2.3668651580810547,1931
2.367932081222534,1983
2.3691329956054688,2039
2.3699440956115723,2104
2.370479106903076,2196
2.3715341091156006,2196
2.3725950717926025,2262
2.3735768795013428,2359
2.3746891021728516,2482
2.375676155090332,2476
2.3767480850219727,2437
2.377690076828003,2386
2.3787059783935547,2302
2.379849910736084,2273
2.3807690143585205,2243
2.3818371295928955,2157
2.38293194770813,2112
2.3835060596466064,2014
2.3844432830810547,2052
2.3855538368225098,2052
2.386559009552002,2132
2.3875949382781982,2169
2.3886032104492188,2208
2.3896372318267822,2285
2.390717029571533,2331
2.3917171955108643,2452
2.3926870822906494,2424
2.393717050552368,2380
2.3947620391845703,2333
2.395820140838623,2300
2.3968069553375244,2273
2.397321939468384,2242
2.3984880447387695,2109
2.3994832038879395,2109
2.400461196899414,2047
2.401527166366577,2077
2.402635097503662,2113
2.403527021408081,2152
2.404569149017334,2179
2.405592203140259,2218
2.40665602684021,2414
2.4077210426330566,2469
2.4087300300598145,2542
2.4097139835357666,2484
2.410710096359253,2428
2.411760091781616,2369
2.4123289585113525,2282
2.413395881652832,2282
2.4143810272216797,2159
2.415511131286621,2074
2.4164679050445557,1958
2.41749906539917,1987
2.418593168258667,2028
2.4195351600646973,2087
2.4205291271209717,2180
2.4216818809509277,2214
2.4227089881896973,2246
2.423737049102783,2328
2.4247870445251465,2363
2.4253082275390625,2441
2.4263150691986084,2399
2.427293062210083,2399
2.4283692836761475,2318
2.429359197616577,2284
2.430492877960205,2250
2.4315261840820312,2145
2.4325199127197266,2114
2.433563232421875,2003
2.4345200061798096,2054
2.435612916946411,2099
2.4366281032562256,2144
2.437628984451294,2174
2.4387121200561523,2203
2.439204216003418,2241
2.4403021335601807,2370
2.4413251876831055,2370
2.4424331188201904,2410
2.443371057510376,2375
2.4444711208343506,2338
2.4454121589660645,2301
2.4464409351348877,2278
2.447477102279663,2245
2.448523998260498,2035
2.4494941234588623,1995
2.4505460262298584,1939
2.451620101928711,1996
2.4527440071105957,2052
2.4532558917999268,2115
2.4542698860168457,2166
2.455357074737549,2166
2.4563210010528564,2334
2.4573371410369873,2409
2.458390951156616,2509
2.4594621658325195,2475
2.4603960514068604,2431
2.461388111114502,2372
2.462520122528076,2284
2.4635279178619385,2255
2.464534044265747,2224
2.465625047683716,2134
2.4666218757629395,2096
2.4676549434661865,2040
2.468208074569702,2099
2.4692490100860596,2099
2.4702441692352295,2166
2.471359968185425,2192
2.472383975982666,2222
2.4734370708465576,2324
2.474306106567383,2349
2.475382089614868,2450
2.476348876953125,2388
2.4774250984191895,2345
2.4783830642700195,2300
2.4794960021972656,2269
2.4805190563201904,2239
2.481137275695801,2167
2.4822280406951904,2055
2.4831950664520264,2055
2.484147071838379,2062
2.4852521419525146,2097
2.486349105834961,2142
2.4873569011688232,2180
2.4884040355682373,2205
2.489284038543701,2240
2.4903969764709473,2434
2.491460084915161,2465
2.492340087890625,2507
2.493428945541382,2451
2.494460105895996,2394
2.4950342178344727,2331
2.4960570335388184,2275
2.4971539974212646,2275
2.498120069503784,2048
2.4991891384124756,1982
2.5003252029418945,1884
2.501272201538086,1926
2.502321243286133,1970
2.5032920837402344,2031
2.504272222518921,2122
2.5054571628570557,2156
2.506438970565796,2208
2.5075080394744873,2308
2.5084421634674072,2325
2.509459972381592,2365
2.510031223297119,2292
2.511106014251709,2292
2.51216197013855,2227
2.5131289958953857,2201
2.5142810344696045,2174
2.515160083770752,2066
2.516288995742798,2047
2.517238140106201,1959
2.5182719230651855,2029
2.5193631649017334,2074
2.5202529430389404,2122
2.5214719772338867,2154
2.5224740505218506,2201
2.523437023162842,2297
2.5239710807800293,2464
2.5250439643859863,2464
2.526205062866211,2409
2.5270490646362305,2360
2.52816104888916,2311
2.52919602394104,2272
2.5302300453186035,2247
2.5311930179595947,2217
2.53228497505188,2006
2.533252239227295,1991
2.534288167953491,1973
2.5353610515594482,2024
2.5363829135894775,2073
2.5368759632110596,2133
2.537947177886963,2176
2.5390141010284424,2176
2.5400350093841553,2375
2.541016101837158,2424
2.542109966278076,2501
2.5432331562042236,2450
2.5441231727600098,2401
2.545156240463257,2343
2.5461771488189697,2262
2.5472710132598877,2210
2.5482280254364014,2119
2.549298048019409,2052
2.550319194793701,2045
2.551345109939575,2039
2.55196213722229,2114
2.5529332160949707,2114
2.553929090499878,2186
2.5550498962402344,2213
2.5561180114746094,2243
2.557047128677368,2347
2.558166980743408,2431
2.5591630935668945,2431
2.5601139068603516,2367
2.5611419677734375,2330
2.5621721744537354,2289
2.563196897506714,2267
2.5643372535705566,2210
2.5647940635681152,2078
2.56587815284729,2004
2.5668768882751465,2004
2.5679709911346436,2058
2.569330930709839,2097
2.570012092590332,2143
2.5710740089416504,2181
2.572010040283203,2248
2.5730690956115723,2248
2.5740411281585693,2452
2.5751280784606934,2455
2.5760812759399414,2467
2.5771400928497314,2417
2.5781948566436768,2373
2.5788300037384033,2316
2.579883098602295,2278
2.5809342861175537,2278
2.5818161964416504,2075
2.582874059677124,2037
2.5839641094207764,1977
2.585092067718506,2030
2.586143970489502,2099
2.5869550704956055,2099
2.5879740715026855,2198
2.589006185531616,2275
2.590076208114624,2386
2.5911951065063477,2449
2.592154026031494,2437
2.592694044113159,2437
2.593682050704956,2387
2.594899892807007,2387
2.595834255218506,2306
2.596834182739258,2277
2.5979440212249756,2244
2.598900079727173,2138
2.599929094314575,2092
2.6010921001434326,2092
2.6020820140838623,2140
2.6030020713806152,2173
2.6040761470794678,2214
2.605081081390381,2238
2.606076240539551,2286
2.606663942337036,2413
2.6078760623931885,2476
2.6088011264801025,2476
2.609858989715576,2437
2.610830068588257,2390
2.6118991374969482,2342
2.612920045852661,2308
2.61389422416687,2223
2.6148650646209717,2223
2.615990161895752,2034
2.616999864578247,2042
2.6181740760803223,2054
2.619328022003174,2099
2.6201279163360596,2188
2.6206719875335693,2188
2.6216750144958496,2227
2.6228060722351074,2227
2.62371826171875,2345
2.6248419284820557,2389
2.625836133956909,2453
2.6270041465759277,2416
2.627897024154663,2367
2.628913164138794,2367
2.6298770904541016,2296
2.6308860778808594,2202
2.6320090293884277,2065
2.633071184158325,2014
2.6336560249328613,2014
2.635035276412964,2085
2.6356699466705322,2131
2.6367249488830566,2131
2.6377029418945312,2178
2.638747215270996,2220
2.639892101287842,2289
2.640815019607544,2388
2.6418650150299072,2421
2.6427969932556152,2421
2.6438190937042236,2373
2.644934892654419,2343
2.6460189819335938,2303
2.6469969749450684,2280
2.6475751399993896,2280
2.648592233657837,2057
2.649639129638672,2025
2.6520590782165527,2025
2.6531310081481934,2072
2.6533560752868652,2119
2.6537511348724365,2175
2.6548590660095215,2252
2.655757188796997,2346
2.6568491458892822,2346
2.6578192710876465,2454
2.65885591506958,2447
2.6599810123443604,2443
2.6609110832214355,2405
2.661497116088867,2405
2.662562131881714,2318
2.6636879444122314,2288
2.6646201610565186,2237
2.665611982345581,2131
2.666701078414917,2105
2.669842004776001,2073
2.6719632148742676,2142
2.672239065170288,2185
2.672542095184326,2185
2.6727330684661865,2221
2.6729049682617188,2311
2.673910140991211,2445
2.6748709678649902,2486
2.675532102584839,2486
2.676645040512085,2420
2.677600145339966,2377
2.678601026535034,2333
2.6796212196350098,2303
2.680676221847534,2256
2.681676149368286,2154
2.6827759742736816,1984
2.683804988861084,2017
2.684791088104248,2017
2.6859331130981445,2080
2.6869161128997803,2137
2.6879160404205322,2197
2.688897132873535,2230
2.6894781589508057,2230
2.690585136413574,2443
2.691547155380249,2467
2.692584991455078,2503
2.6937410831451416,2449
2.6947319507598877,2402
2.695762872695923,2349
2.6966631412506104,2284
2.6977150440216064,2166
2.6987500190734863,2166
2.69973087310791,2097
2.700882911682129,2105
2.7018890380859375,2124
2.702444076538086,2196
2.7035930156707764,2196
2.706058979034424,2255
2.706562042236328,2293
2.7069480419158936,2365
2.7080531120300293,2449
2.7087631225585938,2452
2.70963716506958,2470
2.7106401920318604,2388
2.711655855178833,2346
2.712731122970581,2346
2.7137699127197266,2309
2.7148349285125732,2221
2.715851068496704,2069
2.716419219970703,1992
2.717424154281616,1992
2.7185232639312744,2096
2.7195560932159424,2148
2.7205209732055664,2199
2.721545934677124,2233
2.7225680351257324,2293
2.7235682010650635,2411
2.7245712280273438,2551
2.7255260944366455,2513
2.7265779972076416,2513
2.7276899814605713,2450
2.7287979125976562,2396
2.7297520637512207,2339
2.73024320602417,2264
2.731330156326294,2264
2.7324469089508057,2060
2.733459949493408,2055
2.734494924545288,2050
2.735652208328247,2090
2.7754909992218018,2131
2.775676965713501,2187
2.7766430377960205,2251
2.7774510383605957,2354
2.777682065963745,2479
2.777985095977783,2509
2.7781450748443604,2467
2.7782862186431885,2431
2.779750108718872,2345
2.7800891399383545,2345
2.7826812267303467,2284
2.7828879356384277,2216
2.7830352783203125,2106
2.783428192138672,2048
2.784090042114258,2062
2.784262180328369,2079
2.7843940258026123,2162
2.784546136856079,2204
2.784723997116089,2247
2.784860849380493,2269
2.7852110862731934,2333
2.7853989601135254,2463
2.7856719493865967,2512
2.7859411239624023,2512
2.7861130237579346,2420
2.786264181137085,2377
2.7865872383117676,2331
2.7868521213531494,2303
2.787008047103882,2232
2.7871532440185547,2091
2.787292242050171,1992
2.787424087524414,2044
2.7875561714172363,2091
2.7876830101013184,2135
2.7878079414367676,2179
2.7879371643066406,2231
2.7880640029907227,2303
2.7881898880004883,2303
2.788337230682373,2493
2.7884631156921387,2490
2.7885849475860596,2492
2.788710117340088,2444
2.7888340950012207,2407
2.78895902633667,2354
2.789085865020752,2293
2.789220094680786,2184
2.7893502712249756,2047
2.7894809246063232,2043
2.7896740436553955,2081
2.7899398803710938,2124
2.793199062347412,2175
2.7934231758117676,2175
2.7935752868652344,2251
2.7937121391296387,2338
2.7938461303710938,2460
2.793978214263916,2520
2.7941081523895264,2494
2.7942380905151367,2476
2.7943670749664307,2391
2.7977590560913086,2353
2.798076868057251,2313
2.798246145248413,2291
2.7986080646514893,2226
2.8121490478515625,2085
2.812361001968384,2080
2.8125061988830566,2080
2.812638998031616,2155
2.8127710819244385,2194
2.812899112701416,2240
2.8130271434783936,2268
2.813155174255371,2447
2.813282012939453,2447
2.813408136367798,2538
2.8135340213775635,2491
2.813681125640869,2451
2.8138060569763184,2407
2.8139309883117676,2369
2.814061164855957,2324
2.8141891956329346,2218
2.8161988258361816,2218
2.8164751529693604,2052
2.81781005859375,2070
2.818552017211914,2092
2.8192250728607178,2137
2.82047700881958,2194
2.8213229179382324,2194
2.822242021560669,2268
2.8233280181884766,2371
2.824369192123413,2500
2.8255550861358643,2503
2.8274149894714355,2463
2.828634023666382,2421
2.8290412425994873,2372
2.829219102859497,2372
2.830108165740967,2308
2.8311140537261963,2214
2.832235097885132,2072
2.833219051361084,2031
2.8342599868774414,2070
2.8360249996185303,2070
2.836353063583374,2162
2.837301015853882,2204
2.838334083557129,2248
2.8394269943237305,2297
2.8404269218444824,2352
2.840949058532715,2482
2.842177152633667,2480
2.84303617477417,2480
2.8444879055023193,2430
2.8450570106506348,2383
2.8462321758270264,2334
2.8471128940582275,2306
2.8481132984161377,2170
2.8491599559783936,2170
2.850342273712158,2076
2.851392984390259,2106
2.8523929119110107,2141
2.85332989692688,2180
2.854361057281494,2248
2.8549580574035645,2248
2.8560171127319336,2361
2.857103109359741,2361
2.8581249713897705,2449
2.8592090606689453,2441
2.8604700565338135,2431
2.8611481189727783,2396
2.86260986328125,2348
2.8646042346954346,2348
2.864999294281006,2268
2.8654799461364746,2169
2.868401288986206,2033
2.870048999786377,2039
2.8704349994659424,2039
2.8706371784210205,2136
2.870857000350952,2183
2.8710200786590576,2183
2.8720178604125977,2225
2.8730411529541016,2316
2.8740501403808594,2454
2.8750851154327393,2483
2.8761000633239746,2443
2.877150058746338,2443
2.8781261444091797,2356
2.8791701793670654,2320
2.880223035812378,2280
2.88126802444458,2201
2.8818371295928955,2201
2.8828659057617188,2012
2.8839521408081055,2040
2.884948968887329,2040
2.8859992027282715,2092
2.8870232105255127,2140
2.888024091720581,2194
2.889125108718872,2257
2.890099048614502,2374
2.891078233718872,2374
2.8921501636505127,2410
2.893151044845581,2381
2.894225835800171,2345
2.89524507522583,2306
2.895918130874634,2306
2.8968582153320312,2225
2.8978590965270996,2110
2.898866891860962,1977
2.899894952774048,1963
2.901393175125122,2005
2.902111053466797,2052
2.903118133544922,2149
2.9040720462799072,2192
2.905093193054199,2192
2.906080961227417,2265
2.9072341918945312,2360
2.908128023147583,2486
2.9092800617218018,2473
2.909877061843872,2473
2.91087007522583,2380
2.9119811058044434,2339
2.9129440784454346,2297
2.914001941680908,2273
2.915112018585205,2207
2.916025161743164,2061
2.916969060897827,2009
2.9180049896240234,2058
2.919025182723999,2058
2.9201102256774902,2115
2.9211409091949463,2164
2.92214298248291,2211
2.9226980209350586,2432
2.9238340854644775,2432
2.9247889518737793,2542
2.925967216491699,2498
2.9268040657043457,2462
2.9279329776763916,2408
2.9289920330047607,2363
2.93001127243042,2313
2.9309229850769043,2210
2.931925058364868,2098
2.9330530166625977,2098
2.9339802265167236,2086
2.9354631900787354,2109
2.936210870742798,2146
2.936650037765503,2222
2.9376561641693115,2222
2.938744068145752,2267
2.939676284790039,2368
2.9407670497894287,2485
2.941895008087158,2496
2.9428911209106445,2447
2.943939208984375,2399
2.944932222366333,2307
2.9458329677581787,2274
2.9469871520996094,2274
2.9479281902313232,2174
2.94897723197937,2102
2.9500222206115723,1992
2.950601100921631,2058
2.9516570568084717,2058
2.9527008533477783,2156
2.9536380767822266,2201
2.9547791481018066,2247
2.9558961391448975,2272
2.9568471908569336,2342
2.9578630924224854,2477
2.958824872970581,2509
2.9598309993743896,2459
2.960881233215332,2459
2.961993932723999,2403
2.962985038757324,2360
2.9640262126922607,2318
2.9645371437072754,2072
2.965590000152588,2072
2.9666218757629395,1992
2.967684030532837,2046
2.968860149383545,2093
2.9697940349578857,2136
2.970752000808716,2176
2.971859931945801,2224
2.9728708267211914,2365
2.973841905593872,2456
2.9748752117156982,2456
2.975929021835327,2456
2.976997137069702,2421
2.9779610633850098,2377
2.978527069091797,2304
2.9796249866485596,2304
2.980625867843628,2263
2.9815821647644043,2157
2.982656955718994,2028
2.9837141036987305,2032
2.984787940979004,2071
2.9857311248779297,2119
2.986692190170288,2209
2.9877490997314453,2242
2.9887540340423584,2242
2.989798069000244,2365
2.990900993347168,2425
2.991910219192505,2525
2.992508888244629,2465
2.99360990524292,2465
2.9945621490478516,2376
2.9956650733947754,2339
2.996666193008423,2300
2.997704029083252,2259
2.9987361431121826,2189
2.999746084213257,2051
3.0007009506225586,2062
3.0017499923706055,2111
3.0028719902038574,2111
3.0038230419158936,2165
3.0048749446868896,2206
3.0058910846710205,2248
3.0064151287078857,2470
3.00750994682312,2470
3.008509874343872,2521
3.0095410346984863,2469
3.010601043701172,2424
3.0115792751312256,2384
3.012580156326294,2347
3.013712167739868,2304
3.014646053314209,2108
3.0157740116119385,2036
3.0166919231414795,1949
3.0179860591888428,2000
3.0189051628112793,2053
3.0199270248413086,2116
3.0203440189361572,2210
3.021481990814209,2210
3.022477149963379,2267
3.0235581398010254,2367
3.0244951248168945,2495
3.0256519317626953,2478
3.026632070541382,2441
3.0276601314544678,2394
3.0286478996276855,2315
3.02972412109375,2286
3.0306789875030518,2259
3.031830072402954,2152
3.0328099727630615,2109
3.033937931060791,2016
3.0349960327148438,2092
3.035766124725342,2092
3.03635311126709,2169
3.037429094314575,2206
3.0385310649871826,2244
3.0394790172576904,2304
3.040558099746704,2359
3.04160213470459,2483
3.042673110961914,2465
3.0436348915100098,2421
3.0447092056274414,2375
3.0456480979919434,2341
3.0466859340667725,2312
3.0477640628814697,2279
3.048366069793701,2051
3.0493812561035156,2051
3.0503909587860107,2031
3.0517361164093018,2077
3.0524752140045166,2125
3.05350399017334,2170
3.0545730590820312,2200
3.0555031299591064,2242
3.0565292835235596,2438
3.0575411319732666,2496
3.0585861206054688,2572
3.059727191925049,2518
3.0607049465179443,2463
3.0612752437591553,2402
3.0622730255126953,2349
3.0632519721984863,2349
3.064420223236084,2226
3.0653791427612305,2129
3.06643009185791,2003
3.067437171936035,2021
3.0684971809387207,2058
3.0694751739501953,2115
3.070500135421753,2207
3.071596145629883,2241
3.0725009441375732,2273
3.073627233505249,2373
3.0746612548828125,2405
3.075270175933838,2487
3.076336145401001,2444
3.077317237854004,2444
3.0783300399780273,2360
3.079293966293335,2325
3.0804669857025146,2291
3.081429958343506,2193
3.082393169403076,2044
3.083400011062622,2044
3.0847182273864746,2088
3.08553409576416,2130
3.0865561962127686,2177
3.0876669883728027,2213
3.0886070728302,2240
3.089215040206909,2274
3.090254068374634,2402
3.0912160873413086,2402
3.092405080795288,2452
3.093353033065796,2418
3.0943870544433594,2381
3.0954360961914062,2345
3.0964059829711914,2308
3.097424268722534,2308
3.0984561443328857,2090
3.0995190143585205,2043
3.1004340648651123,1977
3.1017820835113525,2033
3.1025662422180176,2085
3.103100299835205,2148
3.1041619777679443,2200
3.1051692962646484,2200
3.1061739921569824,2347
3.107219934463501,2423
3.10834002494812,2531
3.1092989444732666,2504
3.110262155532837,2441
3.111356258392334,2441
3.1123180389404297,2340
3.113434076309204,2307
3.114471912384033,2274
3.1155471801757812,2193
3.11653208732605,2157
3.11706805229187,2087
3.1182169914245605,2120
3.1191091537475586,2120
3.120162010192871,2167
3.121260166168213,2204
3.1222221851348877,2243
3.123291254043579,2343
3.124289035797119,2440
3.125256061553955,2440
3.126434087753296,2411
3.1273138523101807,2375
3.128467082977295,2334
3.1294641494750977,2302
3.130465030670166,2219
3.1310222148895264,2219
3.132113218307495,2104
3.1331541538238525,2104
3.134251117706299,2099
3.135209083557129,2123
3.1363110542297363,2161
3.1371920108795166,2193
3.1382620334625244,2229
3.139317035675049,2229
3.1403191089630127,2421
3.1413161754608154,2452
3.1423699855804443,2503
3.143470048904419,2449
3.1444332599639893,2349
3.1450560092926025,2349
3.145982027053833,2302
3.147141218185425,2302
3.148120164871216,2172
3.1491708755493164,2097
3.1501429080963135,1986
3.1515891551971436,2015
3.1522130966186523,2078
3.153276205062866,2078
3.15431809425354,2182
3.1553070545196533,2219
3.1563289165496826,2268
3.1573410034179688,2381
3.1579630374908447,2381
3.1589770317077637,2440
3.1600470542907715,2401
3.161058187484741,2401
3.162126064300537,2359
3.163173198699951,2324
3.1641740798950195,2288
3.1651721000671387,2184
3.166205883026123,2098
3.1671531200408936,2098
3.1684980392456055,2133
3.169243097305298,2165
3.1702520847320557,2207
3.1713368892669678,2238
3.171879291534424,2238
3.1729280948638916,2411
3.1739580631256104,2491
3.1750330924987793,2491
3.1760270595550537,2473
3.177164077758789,2433
3.17809796333313,2385
3.179173231124878,2347
3.1801490783691406,2309
3.1811211109161377,2309
3.182180166244507,2102
3.183204174041748,2078
3.184556007385254,2043
3.1852762699127197,2089
3.185859203338623,2089
3.18690824508667,2196
3.1879830360412598,2232
3.188911199569702,2232
3.1899871826171875,2338
3.191030979156494,2404
3.1920340061187744,2505
3.1930150985717773,2471
3.1941959857940674,2416
3.195157051086426,2416
3.196186065673828,2332
3.1971452236175537,2286
3.1982510089874268,2201
3.199291229248047,2108
3.199815034866333,2108
3.2010140419006348,2105
3.201892137527466,2142
3.2028589248657227,2142
3.2039670944213867,2187
3.205022096633911,2222
3.2060179710388184,2259
3.207078218460083,2473
3.208059072494507,2505
3.2090859413146973,2505
3.2100980281829834,2457
3.211153268814087,2410
3.2121379375457764,2358
3.213233232498169,2324
3.2137458324432373,2324
3.2147488594055176,2096
3.215846061706543,2036
3.216952085494995,1957
3.218045949935913,2013
3.2190101146698,2071
3.219933032989502,2134
3.221021890640259,2229
3.2219913005828857,2262
3.223123073577881,2262
3.2240450382232666,2387
3.225196123123169,2416
3.2261910438537598,2453
3.227130174636841,2417
3.2278311252593994,2417
3.228778123855591,2329
3.2298591136932373,2299
3.230790853500366,2270
3.231858968734741,2182
3.232924222946167,2135
3.2340240478515625,2048
3.234926223754883,2123
3.2359249591827393,2166
3.2369332313537598,2166
3.237941026687622,2212
3.239089250564575,2276
3.2400529384613037,2383
3.240657091140747,2556
3.2417421340942383,2556
3.242727279663086,2492
3.243741035461426,2439
3.244810104370117,2388
3.245859146118164,2343
3.24688720703125,2313
3.247894048690796,2280
3.2488911151885986,2054
3.2498831748962402,2041
3.2510430812835693,2041
3.251918077468872,2089
3.253059148788452,2136
3.254060983657837,2193
3.2546210289001465,2261
3.25571608543396,2261
3.2566959857940674,2455
3.257801055908203,2498
3.258769989013672,2565
3.2597591876983643,2508
3.2607791423797607,2452
3.2618610858917236,2392
3.262831211090088,2307
3.263869047164917,2242
3.2648861408233643,2141
3.2660470008850098,2060
3.2670300006866455,2063
3.2682411670684814,2066
3.268609046936035,2146
3.2695789337158203,2146
3.2706611156463623,2214
3.271620035171509,2241
3.272677183151245,2269
3.273792028427124,2355
3.274757146835327,2379
3.2758121490478516,2449
3.276860237121582,2386
3.2778000831604004,2352
3.278876304626465,2313
3.279895067214966,2288
3.2809860706329346,2225
3.281956195831299,2091
3.2825241088867188,1967
3.283644199371338,1967
3.284698247909546,2057
3.285630941390991,2108
3.2867231369018555,2162
3.2877418994903564,2204
3.2887229919433594,2233
3.289760112762451,2283
3.2907772064208984,2486
3.291827917098999,2490
3.2927491664886475,2496
3.293895959854126,2444
3.2949559688568115,2400
3.295469045639038,2344
3.2965240478515625,2305
3.2975380420684814,2305
3.2985541820526123,2095
3.299600124359131,2056
3.300693988800049,2000
3.301668167114258,2053
3.3027150630950928,2097
3.30374813079834,2154
3.3046791553497314,2230
3.3058130741119385,2311
3.306813955307007,2424
3.307932138442993,2487
3.3088700771331787,2470
3.309359073638916,2461
3.3104560375213623,2408
3.3115289211273193,2408
3.3125381469726562,2321
3.3135218620300293,2290
3.3146350383758545,2250
3.3156332969665527,2137
3.3166921138763428,2117
3.3176491260528564,2075
3.318620204925537,2139
3.319793224334717,2180
3.3207192420959473,2225
3.321726083755493,2252
3.322758197784424,2316
3.323413133621216,2444
3.3244690895080566,2503
3.32544207572937,2503
3.326529026031494,2435
3.327501058578491,2393
3.328555107116699,2347
3.329559087753296,2314
3.3305721282958984,2189
3.3315670490264893,2189
3.3326101303100586,2016
3.3339760303497314,2037
3.334739923477173,2059
3.33577299118042,2107
3.3367350101470947,2150
3.3373420238494873,2206
3.3383140563964844,2246
3.3393800258636475,2246
3.340449094772339,2439
3.34136700630188,2463
3.3425421714782715,2506
3.3435111045837402,2458
3.3445792198181152,2398
3.3456339836120605,2398
3.3466310501098633,2316
3.347628116607666,2207
3.3487532138824463,2067
3.349752187728882,2026
3.3507890701293945,2053
3.3512802124023438,2085
3.352385997772217,2138
3.3533501625061035,2138
3.3544399738311768,2225
3.3553881645202637,2261
3.356520891189575,2331
3.3574540615081787,2434
3.3585550785064697,2457
3.3594970703125,2457
3.3605501651763916,2392
3.3615670204162598,2355
3.3626201152801514,2314
3.3636741638183594,2296
3.3647758960723877,2246
3.36527419090271,2097
3.3663251399993896,2054
3.3673300743103027,2054
3.368471145629883,2126
3.3694121837615967,2165
3.370540142059326,2213
3.3715031147003174,2245
3.3725318908691406,2354
3.3735291957855225,2354
3.3745369911193848,2515
3.3755781650543213,2496
3.376650094985962,2478
3.3776471614837646,2429
3.378648042678833,2394
3.379196882247925,2343
3.3803040981292725,2308
3.381265163421631,2308
3.3824241161346436,2177
3.3833680152893066,2141
3.38464617729187,2108
3.385662078857422,2139
3.3864071369171143,2192
3.3873941898345947,2192
3.3885529041290283,2263
3.389575958251953,2356
3.3905951976776123,2486
3.3915140628814697,2527
3.392698049545288,2458
3.3931961059570312,2458
3.3942830562591553,2407
3.3951799869537354,2407
3.3963420391082764,2358
3.3974242210388184,2289
3.3984298706054688,2172
3.399503231048584,2094
3.4004080295562744,2100
3.4015250205993652,2100
3.402459144592285,2167
3.4034690856933594,2203
3.4046452045440674,2247
3.405529022216797,2273
3.406128168106079,2273
3.407215118408203,2483
3.408208131790161,2499
3.4093098640441895,2499
3.4102540016174316,2449
3.411409854888916,2402
3.412402868270874,2348
3.4133849143981934,2315
3.4144110679626465,2180
3.4153521060943604,2180
3.4164531230926514,2043
3.417685031890869,2071
3.418523073196411,2105
3.4196321964263916,2147
3.4201180934906006,2147
3.4212658405303955,2238
3.4221391677856445,2292
3.4231181144714355,2292
3.4242072105407715,2407
3.4252469539642334,2427
3.4263522624969482,2449
3.4274110794067383,2414
3.4283881187438965,2362
3.4293932914733887,2362
3.4304351806640625,2297
3.4313390254974365,2204
3.43245792388916,2060
3.4334781169891357,2034
3.434101104736328,2034
3.435106039047241,2119
3.4360949993133545,2169
3.4371070861816406,2169
3.438227891921997,2215
3.439279079437256,2293
3.440298080444336,2422
3.441319227218628,2566
3.4422781467437744,2527
3.4434430599212646,2527
3.4443790912628174,2461
3.4453911781311035,2406
3.4464430809020996,2351
3.4475860595703125,2317
3.44797420501709,2317
3.4491729736328125,2081
3.450108289718628,2074
3.4511330127716064,2069
3.4520771503448486,2116
3.4532511234283447,2160
3.4542930126190186,2212
3.4553160667419434,2277
3.456238031387329,2388
3.4573419094085693,2388
3.4583191871643066,2455
3.459462881088257,2436
3.4603562355041504,2412
3.4614951610565186,2378
3.4619431495666504,2378
3.463046073913574,2305
3.4640750885009766,2220
3.4651660919189453,2100
3.4661409854888916,2053
3.4671480655670166,2064
3.468374013900757,2080
3.469196081161499,2166
3.47021222114563,2207
3.47121524810791,2207
3.472262144088745,2243
3.4733619689941406,2330
3.4743669033050537,2462
3.474905014038086,2512
3.4760282039642334,2512
3.477065086364746,2415
3.477982997894287,2371
3.4790120124816895,2325
3.480175018310547,2300
3.481170892715454,2230
3.4821701049804688,2085
3.4831390380859375,1976
3.484647274017334,2029
3.485280990600586,2029
3.486246109008789,2094
3.4873600006103516,2149
3.48835825920105,2206
3.4888529777526855,2333
3.489948272705078,2333
3.4909470081329346,2513
3.4919328689575195,2502
3.4930801391601562,2494
3.494108200073242,2445
3.495100975036621,2397
3.496159076690674,2341
3.497103214263916,2277
3.4981250762939453,2159
3.499235153198242,2159
3.5001778602600098,2107
3.5013980865478516,2124
3.502305030822754,2153
3.5028281211853027,2221
3.503933906555176,2221
3.504939079284668,2273
3.50600004196167,2361
3.506972074508667,2478
3.508045196533203,2503
3.5090980529785156,2478
3.5101230144500732,2460
3.511139154434204,2377
3.5122170448303223,2338
3.513140916824341,2300
3.514181137084961,2272
3.515239953994751,2197
3.5162930488586426,2056
3.5168190002441406,2050
3.5178771018981934,2050
3.518902063369751,2135
3.5199201107025146,2179
3.5208890438079834,2226
3.522037982940674,2247
3.5229849815368652,2301
3.5240120887756348,2441
3.525023937225342,2527
3.526059150695801,2479
3.5271010398864746,2436
3.5281898975372314,2393
3.5292112827301025,2353
3.5301990509033203,2310
3.530724048614502,2129
3.5317821502685547,2129
3.532829999923706,1997
3.533902168273926,2030
3.535004138946533,2063
3.5359179973602295,2107
3.5369441509246826,2146
3.5379390716552734,2201
3.539069890975952,2263
3.54001522064209,2369
3.541010856628418,2497
3.5421371459960938,2489
3.5431671142578125,2449
3.5441641807556152,2404
3.544727087020874,2323
3.545768976211548,2323
3.5468459129333496,2273
3.547882080078125,2175
3.548931121826172,2038
3.549896001815796,1999
3.5510551929473877,2034
3.551923990249634,2077
3.5530099868774414,2167
3.554023265838623,2209
3.5550949573516846,2250
3.556033134460449,2297
3.557080030441284,2370
3.5577569007873535,2495
3.558708906173706,2486
3.5598080158233643,2486
3.5608389377593994,2399
3.5617852210998535,2357
3.562885046005249,2313
3.5638840198516846,2287
3.5649259090423584,2247
3.5659070014953613,2096
3.5669000148773193,2037
3.568274974822998,2084
3.5689311027526855,2129
3.570052146911621,2171
3.5710110664367676,2207
3.5716240406036377,2249
3.5726699829101562,2371
3.5737569332122803,2371
3.5747482776641846,2511
3.5757691860198975,2481
3.576894998550415,2455
3.5778510570526123,2409
3.5789098739624023,2327
3.5799200534820557,2327
3.580872058868408,2241
3.5819931030273438,2136
3.5829341411590576,2006
3.583961009979248,2029
3.58528995513916,2071
3.5862159729003906,2125
3.5866522789001465,2180
3.5877230167388916,2180
3.5887439250946045,2253
3.5896430015563965,2349
3.590766191482544,2478
3.591855049133301,2508
3.592825174331665,2427
3.5938191413879395,2427
3.594815969467163,2342
3.5957961082458496,2307
3.5968692302703857,2274
3.5980169773101807,2194
3.599015951156616,2143
3.5995330810546875,2023
3.600572109222412,2052
3.6015920639038086,2052
3.6027109622955322,2137
3.6036641597747803,2178
3.6048331260681152,2224
3.6057310104370117,2251
3.606732130050659,2381
3.607725143432617,2381
3.6087801456451416,2445
3.609809160232544,2413
3.61093807220459,2377
3.6119279861450195,2345
3.6129672527313232,2320
3.6134910583496094,2284
3.614527940750122,2157
3.6156489849090576,2157
3.6165850162506104,2082
3.617955207824707,2099
3.6187121868133545,2126
3.619863986968994,2159
3.6207969188690186,2204
3.6217479705810547,2204
3.6227409839630127,2328
3.6237900257110596,2414
3.6248419284820557,2526
3.625938892364502,2505
3.6268470287323,2463
3.627465009689331,2406
3.6286158561706543,2355
3.6295599937438965,2355
3.63059401512146,2313
3.6315770149230957,2212
3.632628917694092,2064
3.633716106414795,2046
3.6346700191497803,2093
3.635775089263916,2093
3.6366829872131348,2184
3.6377980709075928,2219
3.6387698650360107,2256
3.6398122310638428,2358
3.6408162117004395,2499
3.6413629055023193,2499
3.6425342559814453,2471
3.643578052520752,2471
3.644615888595581,2418
3.6455471515655518,2372
3.646641254425049,2324
3.6476752758026123,2283
3.6485800743103027,2147
3.649617910385132,2147
3.6509270668029785,2109
3.6517491340637207,2136
3.652843952178955,2173
3.653749942779541,2208
3.6544079780578613,2208
3.6553499698638916,2269
3.6563730239868164,2386
3.657459020614624,2386
3.6585452556610107,2441
3.65959095954895,2420
3.6606059074401855,2393
3.6615359783172607,2362
3.662611961364746,2322
3.663573980331421,2322
3.6646621227264404,2146
3.6657040119171143,2077
3.666738986968994,1981
3.667880058288574,2022
3.6682889461517334,2022
3.669374942779541,2135
3.670340061187744,2180
3.6714329719543457,2180
3.6724610328674316,2224
3.673504114151001,2322
3.6744930744171143,2465
3.6755211353302,2473
3.676614999771118,2428
3.6775481700897217,2428
3.6786041259765625,2344
3.679685115814209,2313
3.6806890964508057,2280
3.6817400455474854,2172
3.6822919845581055,2172
3.683292865753174,2033
3.6846301555633545,2075
3.6853930950164795,2075
3.6864280700683594,2124
3.6874160766601562,2171
3.688509941101074,2222
3.6894681453704834,2381
3.690481185913086,2474
3.6916542053222656,2474
3.6925811767578125,2465
3.6935670375823975,2427
3.6947178840637207,2381
3.695573091506958,2345
3.6962170600891113,2345
3.6973559856414795,2280
3.6983659267425537,2160
3.6995179653167725,2025
3.70039701461792,2020
3.701508045196533,2062
3.7023868560791016,2109
3.703455924987793,2197
3.7045083045959473,2231
3.705454111099243,2231
3.706439971923828,2349
3.707503080368042,2417
3.708559036254883,2518
3.709670066833496,2482
3.710172176361084,2482
3.711221933364868,2378
3.712222099304199,2334
3.7133162021636963,2292
3.714383125305176,2238
3.715402126312256,2166
3.7163641452789307,2031
3.7178308963775635,2052
3.7185349464416504,2100
3.7194528579711914,2100
3.7205402851104736,2157
3.7214982509613037,2198
3.722598075866699,2240
3.723177909851074,2469
3.7242019176483154,2469
3.7251791954040527,2517
3.7261948585510254,2464
3.727228879928589,2417
3.7282841205596924,2375
3.72928524017334,2333
3.7303290367126465,2292
3.7313530445098877,2082
3.7323670387268066,2013
3.7335128784179688,2013
3.7346601486206055,2043
3.73551607131958,2083
3.736514091491699,2135
3.7371280193328857,2217
3.738089084625244,2217
3.7391369342803955,2278
3.7401232719421387,2383
3.74123215675354,2506
3.742197036743164,2495
3.743234157562256,2450
3.7442140579223633,2399
3.745317220687866,2310
3.746321201324463,2280
3.7473349571228027,2280
3.7483420372009277,2173
3.74938702583313,2112
3.7504470348358154,2017
3.7510762214660645,2092
3.752052068710327,2092
3.753061056137085,2171
3.754106044769287,2207
3.755124092102051,2243
3.756249189376831,2313
3.757236957550049,2375
3.7581980228424072,2495
3.7592411041259766,2462
3.760232925415039,2411
3.7612431049346924,2411
3.762298107147217,2357
3.7634429931640625,2319
3.7644081115722656,2280
3.764977216720581,2040
3.766073226928711,2040
3.7671799659729004,2019
3.7681760787963867,2058
3.769097089767456,2097
3.7702479362487793,2136
3.771177053451538,2168
3.772150993347168,2210
3.7732322216033936,2421
3.7742772102355957,2480
3.775351047515869,2556
3.776287078857422,2500
3.7773821353912354,2441
3.778343915939331,2380
3.778930902481079,2295
3.7799220085144043,2295
3.7810139656066895,2175
3.7820541858673096,2087
3.783043146133423,1972
3.7842230796813965,2001
3.785148859024048,2043
3.786147117614746,2103
3.787209987640381,2196
3.7882020473480225,2228
3.7893171310424805,2261
3.79026198387146,2363
3.7913331985473633,2395
3.792293071746826,2467
3.7928550243377686,2392
3.793945074081421,2392
3.7949681282043457,2314
3.795989990234375,2284
3.7970361709594727,2251
3.798107147216797,2158
3.7992660999298096,2116
3.800916910171509,2000
3.801659107208252,2046
3.802182912826538,2088
3.8031821250915527,2134
3.8042821884155273,2167
3.8052680492401123,2193
3.806313991546631,2230
3.807347059249878,2318
3.8080971240997314,2318
3.8089630603790283,2376
3.8099892139434814,2346
3.8109750747680664,2310
3.8120570182800293,2283
3.8130319118499756,2261
3.8140320777893066,2229
3.815134048461914,2017
3.8161349296569824,1977
3.817221164703369,1923
3.818279981613159,1984
3.819204092025757,2044
3.8202261924743652,2114
3.8208141326904297,2211
3.8218560218811035,2211
3.8228399753570557,2368
3.823885202407837,2441
3.8265981674194336,2540
3.827345132827759,2506
3.8277170658111572,2462
3.828584909439087,2402
3.829080104827881,2313
3.830091953277588,2284
3.8310699462890625,2253
3.832172155380249,2146
3.8333072662353516,2114
3.8343422412872314,2060
3.834897994995117,2101
3.8358640670776367,2101
3.8368940353393555,2185
3.837939977645874,2216
3.8389780521392822,2250
3.8400352001190186,2353
3.840981960296631,2379
3.8420569896698,2480
3.8430700302124023,2421
3.8440980911254883,2379
3.8451240062713623,2335
3.8461692333221436,2307
3.847135066986084,2276
3.847780227661133,2201
3.8488399982452393,2084
3.8498659133911133,2084
3.8510279655456543,2084
3.8518640995025635,2116
3.8529210090637207,2158
3.854022979736328,2194
3.8574841022491455,2250
3.857897996902466,2250
3.8582489490509033,2446
3.8585872650146484,2476
3.8594229221343994,2518
3.8601510524749756,2465
3.861103057861328,2417
3.861706018447876,2360
3.8627378940582275,2318
3.863830089569092,2318
3.8647780418395996,2114
3.8658230304718018,2058
3.867277145385742,1970
3.867985963821411,2019
3.86885404586792,2126
3.8699350357055664,2126
3.87096905708313,2215
3.871939182281494,2248
3.8730151653289795,2302
3.8740768432617188,2381
3.8751111030578613,2400
3.875706195831299,2443
3.8766908645629883,2402
3.8942301273345947,2402
3.894529104232788,2328
3.894685983657837,2300
3.8948280811309814,2269
3.8949549198150635,2166
3.895078182220459,2086
3.9113872051239014,2086
3.9134819507598877,2127
3.9213571548461914,2160
3.921639919281006,2202
3.9218082427978516,2232
3.921962022781372,2269
3.9220988750457764,2365
3.922236204147339,2459
3.922621011734009,2459
3.9276411533355713,2449
3.9279260635375977,2411
3.9281530380249023,2365
3.9283361434936523,2332
3.928478956222534,2296
3.928637981414795,2296
3.9287760257720947,2086
3.9289700984954834,2065
3.9292590618133545,2040
3.9298219680786133,2086
3.9300150871276855,2179
3.9305551052093506,2179
3.9308691024780273,2217
3.9310970306396484,2217
3.931325912475586,2325
3.931577205657959,2389
3.931814193725586,2483
3.931974172592163,2445
3.9362711906433105,2388
3.936682939529419,2388
3.9371230602264404,2302
3.9373550415039062,2249
3.937528133392334,2152
3.938096046447754,2066
3.93829607963562,2066
3.9384541511535645,2078
3.9385910034179688,2118
3.9388480186462402,2118
3.939008951187134,2164
3.9391531944274902,2200
3.9392940998077393,2239
3.939427137374878,2455
3.939711093902588,2482
3.9399051666259766,2482
3.940074920654297,2431
3.9402260780334473,2384
3.9403600692749023,2333
3.9404852390289307,2300
3.94061017036438,2300
3.940735101699829,2067
3.9408581256866455,2011
3.940980911254883,1938
3.9411041736602783,1999
3.9412269592285156,2059
3.941347122192383,2123
3.9414710998535156,2214
3.94159197807312,2255
3.9417121410369873,2255
3.9418320655822754,2377
3.9419939517974854,2404
3.944303035736084,2436
3.9447360038757324,2402
3.944923162460327,2402
3.9454939365386963,2315
3.9464969635009766,2285
3.9475691318511963,2257
3.94862699508667,2152
3.9497179985046387,2113
3.9507150650024414,2038
3.9517650604248047,2114
3.9527599811553955,2159
3.9537951946258545,2159
3.954737901687622,2206
3.9566662311553955,2278
3.9572999477386475,2395
3.957839250564575,2462
3.958414077758789,2462
3.95943021774292,2440
3.960452079772949,2400
3.9614710807800293,2359
3.962571144104004,2329
3.963637113571167,2302
3.964567184448242,2267
3.9655869007110596,2044
3.9666528701782227,2035
3.967738151550293,2035
3.968648910522461,2088
3.9697091579437256,2133
3.9707021713256836,2189
3.9713170528411865,2258
3.972302198410034,2258
3.973376989364624,2458
3.974453926086426,2501
3.9754621982574463,2560
3.9765501022338867,2500
3.977551221847534,2444
3.978579044342041,2385
3.9797110557556152,2303
3.9805781841278076,2229
3.981639862060547,2229
3.9827051162719727,2122
3.9841110706329346,2112
3.9848172664642334,2110
3.9853649139404297,2178
3.9864261150360107,2178
3.987433910369873,2243
3.9885270595550537,2266
3.989464044570923,2293
3.9906370639801025,2383
3.9916789531707764,2403
3.992655038833618,2464
3.993826150894165,2398
3.9945740699768066,2359
3.9955990314483643,2318
3.996652126312256,2294
3.997817039489746,2227
3.9987058639526367,2087
3.9992620944976807,1970
4.000720262527466,1970
4.001384019851685,2067
4.002380132675171,2120
4.003326892852783,2174
4.004464149475098,2211
4.005446195602417,2242
4.006570100784302,2306
4.007508039474487,2503
4.008475065231323,2500
4.009588003158569,2500
4.010550022125244,2446
4.0117199420928955,2400
4.012678146362305,2345
4.013195037841797,2284
4.014312028884888,2284
4.015393972396851,2089
4.017624139785767,2061
4.018013000488281,2017
4.019132137298584,2071
4.020102262496948,2116
4.020772218704224,2175
4.021867036819458,2252
4.022592067718506,2342
4.023457050323486,2460
4.024662017822266,2514
4.025605201721191,2494
4.026313066482544,2480
4.027440071105957,2427
4.028209209442139,2427
4.029309988021851,2341
4.030286073684692,2310
4.031326055526733,2257
4.032416105270386,2146
4.033428907394409,2130
4.034650087356567,2096
4.035501003265381,2159
4.03652811050415,2199
4.03747820854187,2243
4.038512229919434,2263
4.039587020874023,2329
4.040158987045288,2461
4.041156053543091,2515
4.04228401184082,2515
4.0432820320129395,2440
4.044248104095459,2397
4.045372247695923,2351
4.046363115310669,2317
4.047345876693726,2279
4.048327922821045,2175
4.049407958984375,2011
4.050666093826294,2038
4.051553964614868,2064
4.052560091018677,2105
4.0536088943481445,2150
4.054162979125977,2207
4.055085182189941,2247
4.056251049041748,2247
4.057125091552734,2447
4.058172941207886,2467
4.059253931045532,2504
4.060254096984863,2454
4.061382055282593,2362
4.062366008758545,2362
4.06332802772522,2298
4.064452171325684,2191
4.065397024154663,2054
4.066591024398804,2018
4.067456007003784,2049
4.0679402351379395,2086
4.06906795501709,2140
4.070010185241699,2140
4.0711119174957275,2226
4.072073936462402,2270
4.073162078857422,2349
4.074260950088501,2445
4.075189113616943,2461
4.076273202896118,2461
4.077244281768799,2393
4.078322887420654,2354
4.079376220703125,2312
4.080338001251221,2293
4.0813939571380615,2243
4.081949949264526,2093
4.083078145980835,2054
4.084288120269775,2054
4.085153102874756,2125
4.086105108261108,2164
4.087147951126099,2211
4.088115930557251,2241
4.089108943939209,2357
4.090253114700317,2357
4.091240882873535,2510
4.092318058013916,2486
4.093308210372925,2464
4.094438076019287,2414
4.095305919647217,2378
4.095848083496094,2327
4.097054958343506,2286
4.098143100738525,2286
4.099057197570801,2157
4.100153207778931,2126
4.101129055023193,2099
4.102140188217163,2130
4.103236198425293,2183
4.10417103767395,2183
4.105187177658081,2253
4.106176137924194,2348
4.10727596282959,2478
4.108264923095703,2516
4.109346151351929,2443
4.109861135482788,2443
4.111026048660278,2392
4.111906051635742,2392
4.113100051879883,2344
4.11417293548584,2268
4.115100860595703,2143
4.116074085235596,2070
4.117558002471924,2081
4.118119239807129,2081
4.119192123413086,2153
4.120255947113037,2190
4.1212780475616455,2234
4.122326135635376,2260
4.122789144515991,2260
4.123844146728516,2474
4.124888181686401,2485
4.125910997390747,2485
4.1269121170043945,2428
4.127995252609253,2374
4.129144191741943,2313
4.130089998245239,2271
4.131147146224976,2127
4.132262229919434,2127
4.1331400871276855,1998
4.134377956390381,2034
4.135342121124268,2076
4.136200904846191,2124
4.136817932128906,2124
4.137832880020142,2221
4.138876914978027,2288
4.139915943145752,2288
4.1409242153167725,2404
4.14204216003418,2423
4.142960071563721,2443
4.144069194793701,2410
4.145055055618286,2358
4.146107196807861,2358
4.147026062011719,2292
4.14807915687561,2198
4.1491498947143555,2055
4.150283098220825,2033
4.150753974914551,2033
4.151869058609009,2123
4.1527769565582275,2171
4.15387225151062,2171
4.154914140701294,2211
4.155969142913818,2293
4.156924247741699,2425
4.157986164093018,2560
4.158992052078247,2518
4.159955978393555,2518
4.161059141159058,2452
4.162163019180298,2396
4.163174152374268,2340
4.164250135421753,2303
4.164811134338379,2303
4.165765047073364,2067
4.167190074920654,2064
4.167908191680908,2064
4.168826103210449,2109
4.169912099838257,2151
4.170895099639893,2203
4.172019958496094,2266
4.172924995422363,2379
4.173937082290649,2379
4.175019979476929,2442
4.1760382652282715,2421
4.177083253860474,2396
4.17818808555603,2362
4.178739070892334,2362
4.179750204086304,2289
4.180781126022339,2196
4.181854963302612,2069
4.182847023010254,2028
4.18389105796814,2042
4.184899091720581,2064
4.185842990875244,2150
4.186971187591553,2190
4.187974214553833,2190
4.188911199569702,2223
4.19004487991333,2310
4.19116997718811,2444
4.191655158996582,2484
4.192669868469238,2484
4.193734884262085,2389
4.194733142852783,2345
4.19582200050354,2300
4.1968560218811035,2276
4.197872161865234,2206
4.198919057846069,2062
4.199851989746094,1960
4.200937032699585,2016
4.201920032501221,2016
4.20289421081543,2084
4.204026222229004,2139
4.2050721645355225,2195
4.205729961395264,2340
4.206703186035156,2340
4.207703113555908,2509
4.208743095397949,2491
4.209690093994141,2478
4.210814952850342,2428
4.211802244186401,2380
4.212800979614258,2324
4.213852167129517,2259
4.214853048324585,2139
4.215826988220215,2139
4.217117071151733,2094
4.218013048171997,2104
4.218930006027222,2130
4.219551086425781,2196
4.2205541133880615,2196
4.221673011779785,2239
4.222693204879761,2335
4.223703145980835,2450
4.224790096282959,2502
4.225724220275879,2467
4.226819038391113,2440
4.227862119674683,2345
4.228855133056641,2305
4.229783058166504,2305
4.230889081954956,2254
4.231995105743408,2170
4.233143091201782,2028
4.233911037445068,2027
4.235023021697998,2027
4.235702991485596,2114
4.236613035202026,2157
4.237680196762085,2204
4.2387001514434814,2229
4.239688873291016,2284
4.240682125091553,2425
4.241749048233032,2504
4.242735147476196,2451
4.243859052658081,2406
4.244877099990845,2361
4.245898962020874,2323
4.246936082839966,2281
4.247490167617798,2085
4.248532056808472,2085
4.249573230743408,1966
4.250575065612793,2001
4.251601219177246,2036
4.2527220249176025,2079
4.253607273101807,2119
4.254637002944946,2174
4.255687952041626,2235
4.256678104400635,2344
4.257756948471069,2474
4.258953094482422,2471
4.259864091873169,2427
4.260753870010376,2379
4.261449098587036,2294
4.262509107589722,2294
4.263636112213135,2243
4.264532089233398,2145
4.265580177307129,2007
4.266823053359985,1971
4.267709016799927,2007
4.268722057342529,2052
4.269729137420654,2141
4.270687103271484,2181
4.271646022796631,2220
4.2727601528167725,2282
4.273774147033691,2351
4.2743940353393555,2474
4.275424957275391,2456
4.276419162750244,2456
4.277585983276367,2363
4.278548955917358,2323
4.279545068740845,2281
4.2806479930877686,2258
4.281626224517822,2218
4.2826621532440186,2071
4.284205198287964,2025
4.285907030105591,2072
4.28619909286499,2118
4.286774158477783,2160
4.287816047668457,2196
4.288331031799316,2238
4.289414167404175,2365
4.29035210609436,2365
4.291383981704712,2506
4.292393922805786,2476
4.293576955795288,2450
4.294497013092041,2405
4.295562028884888,2323
4.296560049057007,2323
4.297596216201782,2220
4.298669099807739,2118
4.299620151519775,1995
4.300808906555176,2018
4.301748991012573,2060
4.302325010299683,2116
4.3033552169799805,2173
4.304415941238403,2173
4.305411100387573,2249
4.306395053863525,2349
4.307492017745972,2479
4.308517217636108,2509
4.309449911117554,2462
4.31054425239563,2462
4.31150221824646,2371
4.312617063522339,2334
4.313632011413574,2298
4.314694166183472,2209
4.31563401222229,2158
4.3162291049957275,2039
4.317260026931763,2067
4.318282127380371,2067
4.31931209564209,2148
4.320426940917969,2188
4.321505069732666,2233
4.322515964508057,2261
4.323405027389526,2396
4.3244850635528564,2396
4.325597047805786,2455
4.326493978500366,2423
4.32755708694458,2386
4.328681945800781,2352
4.329770088195801,2327
4.330270051956177,2290
4.33133602142334,2159
4.33228325843811,2159
4.333361864089966,2094
4.334607124328613,2107
4.33570408821106,2130
4.336414098739624,2163
4.3374550342559814,2208
4.338489055633545,2208
4.339428186416626,2353
4.340397119522095,2435
4.3415632247924805,2544
4.342592000961304,2519
4.343667984008789,2419
4.344182014465332,2419
4.345216989517212,2368
4.346293926239014,2368
4.3472020626068115,2327
4.348417043685913,2225
4.349363088607788,2075
4.350455045700073,2057
4.351367950439453,2102
4.352388143539429,2102
4.353509187698364,2191
4.354449272155762,2225
4.355474948883057,2262
4.356553077697754,2367
4.357096910476685,2367
4.358134984970093,2523
4.3591742515563965,2484
4.3602659702301025,2484
4.36124324798584,2427
4.362289905548096,2378
4.36335015296936,2327
4.364319086074829,2272
4.365312099456787,2137
4.366379976272583,2137
4.3674750328063965,2105
4.368406057357788,2132
4.369565010070801,2171
4.370552062988281,2203
4.371072053909302,2203
4.372196197509766,2264
4.373228073120117,2378
4.374166965484619,2378
4.375202178955078,2429
4.376296043395996,2410
4.377294063568115,2383
4.378366947174072,2317
4.37932014465332,2287
4.3803582191467285,2287
4.381382942199707,2180
4.3823401927948,2104
4.383496999740601,1996
4.384546995162964,2030
4.385030269622803,2030
4.3860390186309814,2137
4.387099266052246,2187
4.388113260269165,2187
4.389250993728638,2237
4.390182256698608,2330
4.391228914260864,2474
4.3922669887542725,2494
4.393305063247681,2445
4.394331216812134,2445
4.395356893539429,2388
4.396348237991333,2347
4.397436141967773,2306
4.3984551429748535,2197
4.398977994918823,2197
4.400074005126953,2062
4.4010910987854,2097
4.402033090591431,2133
4.403216123580933,2173
4.404165267944336,2206
4.405148983001709,2247
4.40611720085144,2419
4.407266139984131,2500
4.408273935317993,2500
4.409332990646362,2485
4.410289287567139,2444
4.4113569259643555,2393
4.411949157714844,2311
4.412980079650879,2311
4.414077043533325,2262
4.415102958679199,2150
4.416142225265503,2019
4.417313098907471,2022
4.41811203956604,2062
4.419246196746826,2114
4.420159101486206,2208
4.421216011047363,2241
4.422250032424927,2241
4.423228979110718,2357
4.424342155456543,2419
4.425306081771851,2520
4.42588996887207,2456
4.427047252655029,2456
4.4280571937561035,2369
4.429099082946777,2332
4.429949998855591,2294
4.431109189987183,2228
4.43218207359314,2159
4.433145046234131,2027
4.434226989746094,2057
4.435182094573975,2106
4.436145067214966,2106
4.437239170074463,2160
4.438229084014893,2201
4.439326047897339,2245
4.439815998077393,2476
4.440938949584961,2476
4.441896915435791,2517
4.442809104919434,2466
4.443961143493652,2419
4.445109128952026,2376
4.446085214614868,2342
4.447077035903931,2302
4.448127031326294,2080
4.44907808303833,2019
4.45023512840271,2019
4.4511730670928955,2053
4.4523210525512695,2096
4.453181982040405,2151
4.453865051269531,2232
4.454887866973877,2232
4.455932855606079,2312
4.4569480419158936,2413
4.45793604850769,2533
4.459051132202148,2511
4.460080146789551,2472
4.461044073104858,2420
4.462121963500977,2334
4.463021993637085,2302
4.464099168777466,2272
4.46518087387085,2182
4.4662041664123535,2134
4.467257022857666,2042
4.467818021774292,2112
4.468804121017456,2112
4.4698920249938965,2187
4.470880031585693,2222
4.471900224685669,2258
4.4729132652282715,2321
4.473942041397095,2376
4.474952936172485,2500
4.475970983505249,2471
4.477060079574585,2426
4.478111028671265,2379
4.479192018508911,2345
4.480098009109497,2315
4.4811930656433105,2283
4.481703281402588,2053
4.4827470779418945,2053
4.483845233917236,2045
4.48495888710022,2088
4.48591423034668,2134
4.486952066421509,2178
4.487987041473389,2208
4.489001035690308,2248
4.489994049072266,2452
4.4909679889678955,2505
4.492007255554199,2576
4.493039131164551,2519
4.494139194488525,2465
4.494661092758179,2404
4.495770215988159,2351
4.4967100620269775,2351
4.497773170471191,2189
4.498847007751465,2101
4.499850034713745,1987
4.500890254974365,2016
4.501859188079834,2116
4.502885103225708,2116
4.5039379596710205,2209
4.504998207092285,2242
4.506044149398804,2275
4.5069780349731445,2376
4.5080461502075195,2408
4.5086400508880615,2479
4.509670257568359,2438
4.510751962661743,2438
4.5116260051727295,2356
4.51267409324646,2323
4.513872146606445,2289
4.514786005020142,2181
4.515830039978027,2079
4.51737904548645,2079
4.517847061157227,2113
4.51891827583313,2149
4.52002215385437,2191
4.521081209182739,2216
4.5220630168914795,2241
4.522630214691162,2289
4.523620128631592,2412
4.524645090103149,2412
4.525724172592163,2450
4.526705265045166,2421
4.527810096740723,2383
4.528820991516113,2351
4.529841899871826,2318
4.530774116516113,2318
4.531882047653198,2110
4.532912254333496,2070
4.534136056900024,2012
4.534976959228516,2064
4.5359601974487305,2109
4.536509990692139,2168
4.537691116333008,2222
4.538620233535767,2222
4.539769172668457,2361
4.540677070617676,2449
4.5417468547821045,2569
4.542686939239502,2550
4.543838977813721,2497
4.544742107391357,2497
4.545834064483643,2411
4.546876907348633,2380
4.54792594909668,2341
4.548875093460083,2226
4.550133943557739,2161
4.550716161727905,2161
4.551569223403931,2200
4.552664041519165,2200
4.553632974624634,2248
4.554707050323486,2289
4.555712938308716,2331
4.556678056716919,2429
4.557753086090088,2518
4.558781862258911,2518
4.559696197509766,2483
4.560793161392212,2450
4.561859130859375,2411
4.562884092330933,2382
4.563462257385254,2382
4.564529180526733,2193
4.56548810005188,2107
4.566663026809692,2107
4.567574977874756,2129
4.568604230880737,2170
4.569691181182861,2222
4.570627212524414,2258
4.57176399230957,2297
4.572763204574585,2297
4.57368016242981,2483
4.574725151062012,2505
4.575834035873413,2545
4.576822996139526,2491
4.577436208724976,2491
4.578533172607422,2377
4.579546213150024,2343
4.580455303192139,2343
4.581571102142334,2219
4.582633018493652,2162
4.58366322517395,2059
4.584630966186523,2131
4.585711240768433,2180
4.586795091629028,2180
4.587715148925781,2233
4.588791131973267,2278
4.589787244796753,2356
4.590821266174316,2454
4.591363191604614,2454
4.592442035675049,2490
4.593409061431885,2454
4.594548940658569,2415
4.595510005950928,2383
4.596654176712036,2356
4.597702980041504,2323
4.598680019378662,2092
4.599674224853516,2059
4.600635051727295,2059
4.601644992828369,2108
4.602751016616821,2158
4.603791236877441,2215
4.604770183563232,2250
4.605329990386963,2250
4.606533050537109,2460
4.607409954071045,2528
4.608386039733887,2613
4.609496116638184,2561
4.610596179962158,2504
4.61149525642395,2443
4.6126179695129395,2351
4.613526105880737,2316
4.614703178405762,2316
4.615614891052246,2181
4.616956949234009,2154
4.617745876312256,2125
4.618283987045288,2202
4.6194000244140625,2202
4.62037205696106,2276
4.621396064758301,2306
4.622458219528198,2335
4.623460054397583,2418
4.624482154846191,2456
4.62560510635376,2544
4.626535177230835,2473
4.627547264099121,2430
4.62861704826355,2430
4.629508018493652,2385
4.630677938461304,2316
4.631714105606079,2197
4.632242918014526,2018
4.63341498374939,2018
4.634807109832764,2084
4.635349988937378,2134
4.636280059814453,2185
4.637474060058594,2222
4.638501167297363,2251
4.639418125152588,2286
4.640438079833984,2498
4.6415321826934814,2518
4.6425981521606445,2518
4.643607139587402,2470
4.644750118255615,2426
4.645681858062744,2372
4.646281957626343,2303
4.647284030914307,2303
4.648343086242676,2097
4.649305105209351,2051
4.65038800239563,1982
4.651378870010376,2039
4.652377128601074,2088
4.653468132019043,2150
4.6545000076293945,2240
4.655525207519531,2294
4.656540155410767,2382
4.6575400829315186,2454
4.658646106719971,2460
4.659600257873535,2476
4.660145998001099,2402
4.661268949508667,2402
4.662317991256714,2334
4.663228273391724,2312
4.664271116256714,2287
4.665340185165405,2211
4.666545867919922,2177
4.66739296913147,2104
4.668419122695923,2166
4.669450998306274,2206
4.670428276062012,2251
4.671532154083252,2275
4.672575950622559,2336
4.67352294921875,2460
4.674144983291626,2598
4.675116062164307,2598
4.676209211349487,2515
4.677170991897583,2463
4.678347110748291,2410
4.679398059844971,2368
4.68035101890564,2341
4.681365966796875,2287
4.682365894317627,2076
4.683613061904907,2077
4.684433221817017,2078
4.685519218444824,2125
4.686530113220215,2170
4.687013149261475,2228
4.688205003738403,2267
4.689100980758667,2267
4.690144062042236,2468
4.691141128540039,2503
4.692252159118652,2561
4.6933512687683105,2509
4.694283962249756,2408
4.695309162139893,2408
4.6962831020355225,2330
4.697397947311401,2242
4.698400020599365,2118
4.69945502281189,2061
4.700638055801392,2075
4.701148271560669,2096
4.702120065689087,2147
4.703121185302734,2147
4.704208135604858,2232
4.705186128616333,2262
4.706170082092285,2299
4.707214117050171,2408
4.708277940750122,2457
4.709342956542969,2457
4.710300922393799,2407
4.711338043212891,2374
4.712338924407959,2335
4.713435173034668,2315
4.714415073394775,2261
4.714959144592285,2113
4.716077089309692,2050
4.717039108276367,2050
4.718225955963135,2117
4.719197034835815,2155
4.72027587890625,2203
4.721255302429199,2239
4.722212076187134,2323
4.723253011703491,2323
4.7242748737335205,2514
4.725225925445557,2508
4.726330041885376,2505
4.727383136749268,2456
4.728320121765137,2419
4.728881120681763,2365
4.7300331592559814,2330
4.73100209236145,2330
4.732015132904053,2199
4.73335599899292,2152
4.7341508865356445,2097
4.735149145126343,2130
4.736211061477661,2186
4.737145185470581,2186
4.73824405670166,2265
4.739292860031128,2358
4.7402870655059814,2484
4.741358041763306,2539
4.742354869842529,2489
4.742948055267334,2489
4.743946075439453,2437
4.745054006576538,2437
4.746064186096191,2383
4.747131109237671,2335
4.748124837875366,2249
4.749146223068237,2150
4.750226974487305,2126
4.751212120056152,2126
4.752202033996582,2175
4.753175973892212,2208
4.754284143447876,2252
4.75527024269104,2278
4.755864143371582,2278
4.756924152374268,2494
4.7579240798950195,2527
4.758990049362183,2527
4.760009050369263,2478
4.7610979080200195,2431
4.762176990509033,2376
4.763074159622192,2340
4.764147043228149,2217
4.765196084976196,2217
4.76623797416687,2057
4.768064022064209,2075
4.768768072128296,2097
4.769237995147705,2137
4.769804000854492,2137
4.770937204360962,2231
4.771920204162598,2265
4.773003101348877,2265
4.7739362716674805,2372
4.774972915649414,2408
4.775996923446655,2456
4.777106046676636,2385
4.778010129928589,2346
4.779132843017578,2346
4.780142068862915,2310
4.78120493888855,2214
4.782232999801636,2067
4.783233165740967,2028
4.783804893493652,2028
4.784869194030762,2107
4.785866975784302,2152
4.786920070648193,2202
4.787948131561279,2232
4.788989067077637,2284
4.789982080459595,2383
4.790987014770508,2557
4.792001962661743,2532
4.793003082275391,2532
4.7941062450408936,2474
4.795156002044678,2419
4.796251058578491,2360
4.797245025634766,2325
4.797723054885864,2325
4.798793077468872,2093
4.7999842166900635,2070
4.800849914550781,2046
4.8019890785217285,2091
4.802879095077515,2136
4.804001092910767,2193
4.80498194694519,2263
4.806044101715088,2374
4.8069682121276855,2374
4.808025121688843,2457
4.809107065200806,2445
4.810180187225342,2430
4.810698986053467,2353
4.8117759227752686,2353
4.812788009643555,2294
4.813857078552246,2241
4.814819097518921,2148
4.815871000289917,2080
4.816900014877319,2074
4.817915201187134,2071
4.818911075592041,2151
4.819984197616577,2190
4.821043014526367,2190
4.821992874145508,2222
4.823074102401733,2300
4.82408595085144,2424
4.824588060379028,2491
4.825751066207886,2491
4.8267340660095215,2393
4.8277130126953125,2350
4.828834056854248,2308
4.829777956008911,2281
4.830851078033447,2216
4.831822156906128,2085
4.833229064941406,1961
4.833885908126831,2011
4.835095167160034,2011
4.835937976837158,2082
4.837074041366577,2142
4.8380961418151855,2203
4.839097023010254,2239
4.839607000350952,2239
4.840634107589722,2471
4.841640949249268,2483
4.842686891555786,2499
4.843761205673218,2449
4.844893932342529,2404
4.845778942108154,2350
4.846865177154541,2290
4.847907066345215,2166
4.848893880844116,2166
4.849993944168091,2097
4.8509681224823,2113
4.852000951766968,2141
4.852565050125122,2217
4.853579998016357,2217
4.8545920848846436,2275
4.855719089508057,2347
4.856641054153442,2454
4.857776165008545,2503
4.85876202583313,2490
4.859739065170288,2484
4.860872983932495,2396
4.86180305480957,2356
4.862806081771851,2356
4.863858938217163,2319
4.86501407623291,2228
4.8659751415252686,2078
4.867146015167236,2037
4.867687940597534,2037
4.868622064590454,2129
4.86963415145874,2176
4.870596170425415,2226
4.871760129928589,2255
4.872776985168457,2324
4.873730182647705,2456
4.874782085418701,2567
4.875751256942749,2519
4.876842021942139,2519
4.877772092819214,2454
4.879008054733276,2401
4.8799779415130615,2346
4.880422115325928,2202
4.881538152694702,2202
4.882683277130127,2024
4.883586168289185,2044
4.884603261947632,2064
4.885883092880249,2108
4.886742115020752,2149
4.8877739906311035,2207
4.888787031173706,2274
4.889827013015747,2384
4.890791177749634,2508
4.891804933547974,2511
4.892843961715698,2474
4.89394211769104,2432
4.894463062286377,2350
4.895448207855225,2350
4.896536111831665,2294
4.8974761962890625,2198
4.89874005317688,2060
4.899688005447388,2008
4.90087103843689,2035
4.901697158813477,2069
4.902749061584473,2158
4.9037041664123535,2201
4.904711961746216,2244
4.9058098793029785,2269
4.906918287277222,2341
4.907382011413574,2478
4.9084861278533936,2483
4.909427881240845,2483
4.9104321002960205,2399
4.911501169204712,2357
4.912558078765869,2312
4.913639307022095,2285
4.914655923843384,2094
4.915657043457031,2094
4.916817903518677,2009
4.917712211608887,2056
4.918760061264038,2101
4.9198222160339355,2142
4.920830011367798,2182
4.9213292598724365,2229
4.922426223754883,2339
4.923393964767456,2339
4.924452066421509,2505
4.925479888916016,2485
4.926641941070557,2469
4.927633285522461,2424
4.9286510944366455,2339
4.929579019546509,2339
4.930565118789673,2282
4.931632041931152,2170
4.932690858840942,2034
4.9338538646698,2043
4.9347851276397705,2078
4.935345888137817,2127
4.936397075653076,2182
4.93738317489624,2182
4.938438892364502,2256
4.939345836639404,2352
4.940465211868286,2485
4.941517114639282,2529
4.942517995834351,2487
4.943632125854492,2487
4.944580078125,2390
4.945617198944092,2348
4.94660210609436,2308
4.947679042816162,2254
4.948703050613403,2191
4.949350118637085,2053
4.950369119644165,2068
4.951351165771484,2068
4.952341079711914,2147
4.953371047973633,2186
4.95446515083313,2232
4.9554831981658936,2260
4.956484079360962,2385
4.957489252090454,2385
4.958603143692017,2469
4.959584951400757,2434
4.960597038269043,2398
4.9616289138793945,2360
4.962585210800171,2296
4.963172197341919,2296
4.964269161224365,2170
4.965319871902466,2170
4.966415166854858,2083
4.96749210357666,2096
4.96844220161438,2120
4.9694390296936035,2153
4.970505952835083,2203
4.971469163894653,2203
4.972476243972778,2295
