Time (s),G0_Short,G0_Long1,G0_Long2,G0_Emitter,G1_Short,G1_Long1,G1_Long2,G1_Emitter,G2_Short,G2_Long1,G2_Long2,G2_Emitter,G3_Short,G3_Long1,G3_Long2,G3_Emitter,G4_Short,G4_Long1,G4_Long2,G4_Emitter,G5_Short,G5_Long1,G5_Long2,G5_Emitter,G6_Short,G6_Long1,G6_Long2,G6_Emitter,G7_Short,G7_Long1,G7_Long2,G7_Emitter
0.0,2069,2076,2080,1,2080,2098,2095,1,2103,2122,2126,1,2102,2103,2129,1,2041,2059,2062,1,1977,2003,1994,1,2368,2392,2392,1,60,59,59,1
0.001,2068,2075,2080,1,2080,2098,2095,1,2102,2121,2126,1,2101,2103,2127,1,2039,2056,2065,1,1974,2000,1995,1,2365,2387,2390,1,60,59,59,1
0.002,2069,2073,2080,1,2080,2098,2095,1,2102,2120,2126,1,2102,2102,2128,1,2041,2054,2064,1,1977,1997,1995,1,2367,2384,2390,1,60,59,59,1
0.003,2069,2074,2079,1,2080,2098,2095,1,2102,2120,2126,1,2102,2102,2128,1,2041,2054,2064,1,1977,1997,1995,1,2367,2384,2389,1,60,59,59,1
0.004,2069,2074,2079,1,2080,2098,2095,1,2102,2120,2126,1,2102,2102,2128,1,2041,2053,2064,1,1977,1997,1995,1,2367,2384,2389,1,60,59,59,1
0.005,2069,2074,2079,1,2080,2098,2095,1,2103,2120,2126,1,2103,2102,2127,1,2042,2053,2065,1,1978,1997,1996,1,2367,2384,2388,1,60,59,59,1
0.006,2069,2074,2079,1,2080,2098,2096,1,2102,2121,2126,1,2102,2102,2127,1,2040,2054,2067,1,1975,1998,1997,1,2365,2384,2388,1,60,59,59,1
0.007,2070,2074,2080,1,2081,2098,2096,1,2103,2121,2126,1,2103,2103,2128,1,2041,2052,2066,1,1977,1995,1997,1,2366,2381,2390,1,60,59,59,1
0.008,2072,2076,2080,1,2082,2099,2096,1,2105,2123,2127,1,2105,2104,2128,1,2045,2056,2068,1,1983,2001,1999,1,2371,2387,2390,1,60,59,59,1
0.009,2072,2076,2080,1,2082,2099,2097,1,2105,2123,2128,1,2105,2104,2129,1,2043,2054,2069,1,1980,1999,2000,1,2369,2384,2392,1,60,59,59,1
0.01,2072,2076,2081,1,2083,2100,2097,1,2105,2124,2128,1,2105,2104,2129,1,2044,2055,2069,1,1980,2000,2000,1,2369,2385,2392,1,60,59,59,1
0.011,2072,2076,2081,1,2083,2100,2097,1,2105,2124,2128,1,2105,2104,2130,1,2045,2055,2069,1,1980,2000,2001,1,2369,2385,2393,1,60,59,59,1
0.012,2072,2076,2081,1,2083,2100,2097,1,2105,2123,2128,1,2105,2104,2130,1,2045,2055,2069,1,1980,1999,2001,1,2369,2386,2391,1,60,59,59,1
0.013,2072,2076,2081,1,2083,2099,2097,1,2105,2122,2128,1,2105,2104,2130,1,2045,2052,2067,1,1980,1996,2000,1,2369,2383,2392,1,60,59,59,1
0.014,2072,2076,2081,1,2083,2099,2097,1,2105,2123,2127,1,2105,2104,2129,1,2046,2056,2068,1,1983,2001,2000,1,2371,2388,2391,1,60,59,59,1
0.015,2070,2075,2080,1,2082,2098,2097,1,2104,2122,2126,1,2103,2103,2127,1,2042,2054,2068,1,1978,1998,1998,1,2368,2385,2390,1,60,59,59,1
0.016,2070,2073,2080,1,2082,2097,2096,1,2104,2121,2126,1,2103,2102,2128,1,2043,2052,2066,1,1979,1996,1998,1,2369,2384,2390,1,60,59,59,1
0.016,2070,2074,2080,1,2082,2097,2096,1,2104,2121,2126,1,2103,2102,2128,1,2043,2052,2065,1,1979,1996,1996,1,2369,2384,2389,1,60,59,59,1
0.018,2070,2074,2080,1,2081,2097,2096,1,2103,2121,2126,1,2102,2102,2128,1,2042,2052,2065,1,1977,1995,1996,1,2369,2383,2389,1,60,59,59,1
0.019,2070,2074,2079,1,2081,2097,2096,1,2103,2121,2126,1,2102,2102,2127,1,2042,2052,2064,1,1978,1995,1996,1,2368,2383,2388,1,60,59,59,1
0.019,2069,2074,2079,1,2080,2097,2096,1,2102,2121,2126,1,2101,2102,2127,1,2039,2052,2065,1,1974,1995,1997,1,2365,2382,2387,1,60,59,59,1
0.021,2069,2074,2079,1,2080,2097,2096,1,2102,2120,2126,1,2102,2102,2128,1,2041,2049,2064,1,1976,1992,1996,1,2366,2379,2388,1,60,59,59,1
0.022,2070,2075,2079,1,2081,2098,2096,1,2103,2121,2126,1,2103,2102,2127,1,2044,2053,2065,1,1981,1997,1997,1,2370,2385,2388,1,60,59,59,1
0.023,2069,2075,2079,1,2081,2098,2097,1,2102,2121,2126,1,2102,2102,2128,1,2041,2052,2066,1,1977,1995,1999,1,2367,2382,2389,1,60,59,59,1
0.024,2070,2076,2080,1,2081,2099,2097,1,2104,2122,2126,1,2104,2103,2128,1,2042,2054,2066,1,1978,1997,1999,1,2368,2383,2389,1,60,59,59,1
0.025,2070,2076,2081,1,2082,2099,2097,1,2105,2122,2127,1,2104,2103,2129,1,2043,2054,2068,1,1979,1997,2000,1,2368,2383,2391,1,60,59,59,1
0.026,2070,2076,2081,1,2082,2099,2097,1,2105,2123,2128,1,2104,2104,2129,1,2043,2056,2069,1,1979,1998,2001,1,2368,2385,2391,1,60,59,59,1
0.027,2071,2076,2081,1,2082,2099,2097,1,2105,2123,2128,1,2104,2104,2130,1,2044,2054,2068,1,1980,1996,2000,1,2369,2383,2392,1,60,59,59,1
0.028,2072,2077,2081,1,2082,2100,2097,1,2105,2124,2128,1,2105,2104,2130,1,2046,2058,2069,1,1983,2001,2001,1,2372,2389,2391,1,60,59,59,1
0.029,2071,2076,2081,1,2082,2099,2097,1,2104,2123,2128,1,2104,2104,2129,1,2044,2053,2070,1,1979,1995,2002,1,2369,2383,2391,1,60,59,59,1
0.03,2071,2075,2081,1,2082,2098,2096,1,2104,2122,2128,1,2104,2103,2129,1,2045,2053,2068,1,1981,1996,2000,1,2370,2383,2391,1,60,59,59,1
0.03,2071,2076,2080,1,2082,2098,2096,1,2104,2122,2126,1,2104,2103,2128,1,2045,2053,2066,1,1981,1996,1998,1,2370,2383,2390,1,60,59,59,1
0.031,2070,2075,2080,1,2081,2098,2096,1,2103,2122,2126,1,2103,2103,2128,1,2044,2053,2066,1,1979,1996,1998,1,2368,2382,2390,1,60,59,59,1
0.032,2070,2075,2079,1,2081,2098,2095,1,2103,2122,2126,1,2103,2103,2127,1,2044,2053,2065,1,1979,1996,1997,1,2368,2382,2389,1,60,59,59,1
0.034,2069,2075,2079,1,2080,2098,2095,1,2102,2122,2126,1,2102,2103,2127,1,2041,2053,2065,1,1975,1995,1997,1,2365,2381,2387,1,60,59,59,1
0.034,2069,2074,2079,1,2080,2097,2095,1,2103,2121,2126,1,2103,2102,2128,1,2043,2050,2063,1,1978,1992,1996,1,2367,2378,2388,1,60,59,59,1
0.036,2070,2074,2079,1,2080,2098,2095,1,2104,2121,2125,1,2104,2102,2127,1,2045,2054,2064,1,1982,1997,1996,1,2370,2384,2387,1,60,59,60,1
0.037,2069,2074,2079,1,2080,2098,2095,1,2103,2120,2125,1,2103,2102,2127,1,2042,2052,2065,1,1978,1995,1996,1,2367,2381,2388,1,60,59,60,1
0.038,2069,2074,2079,1,2080,2098,2095,1,2102,2120,2125,1,2103,2102,2127,1,2041,2052,2065,1,1977,1996,1996,1,2366,2381,2388,1,60,59,60,1
0.039,2069,2074,2079,1,2080,2098,2095,1,2102,2120,2125,1,2103,2102,2127,1,2042,2052,2065,1,1977,1996,1997,1,2366,2381,2389,1,60,59,60,1
0.04,2069,2075,2080,1,2080,2099,2095,1,2102,2121,2125,1,2103,2103,2127,1,2042,2053,2066,1,1977,1997,1998,1,2366,2383,2389,1,60,59,60,1
0.041,2069,2075,2081,1,2081,2099,2095,1,2103,2121,2126,1,2103,2103,2129,1,2042,2052,2065,1,1977,1996,1998,1,2366,2381,2391,1,60,59,60,1
0.042,2071,2076,2081,1,2082,2100,2096,1,2105,2123,2127,1,2105,2104,2129,1,2045,2057,2067,1,1982,2001,1999,1,2370,2387,2390,1,60,59,60,1
0.043,2071,2076,2081,1,2082,2100,2097,1,2104,2123,2128,1,2104,2104,2129,1,2043,2053,2070,1,1979,1996,2001,1,2368,2382,2391,1,60,59,60,1
0.044,2071,2075,2081,1,2083,2099,2097,1,2105,2123,2128,1,2105,2104,2130,1,2045,2055,2069,1,1982,1998,2000,1,2370,2384,2391,1,60,59,60,1
0.044,2071,2076,2081,1,2083,2100,2097,1,2105,2123,2128,1,2105,2104,2131,1,2045,2055,2068,1,1982,1998,2000,1,2370,2384,2392,1,60,59,60,1
0.045,2071,2076,2081,1,2083,2100,2097,1,2105,2123,2128,1,2104,2104,2131,1,2044,2055,2068,1,1981,1998,2000,1,2370,2384,2392,1,60,59,60,1
0.046,2071,2076,2080,1,2083,2100,2096,1,2105,2123,2128,1,2104,2104,2129,1,2044,2055,2067,1,1981,1998,2000,1,2369,2384,2391,1,60,59,60,1
0.047,2071,2074,2080,1,2083,2098,2096,1,2105,2121,2127,1,2104,2103,2128,1,2044,2053,2067,1,1981,1997,2000,1,2369,2389,2389,1,60,59,60,1
0.048,2071,2074,2080,1,2082,2097,2096,1,2105,2120,2126,1,2104,2102,2128,1,2045,2050,2065,1,1982,1993,1998,1,2370,2383,2390,1,60,59,60,1
0.049,2071,2075,2080,1,2082,2098,2096,1,2105,2121,2126,1,2105,2102,2127,1,2047,2054,2065,1,1984,1998,1998,1,2372,2387,2389,1,60,59,60,1
0.05,2070,2074,2079,1,2081,2098,2096,1,2103,2120,2126,1,2103,2101,2126,1,2043,2052,2064,1,1979,1995,1997,1,2368,2383,2388,1,60,59,60,1
0.051,2069,2074,2079,1,2080,2098,2096,1,2102,2120,2126,1,2102,2101,2126,1,2041,2052,2064,1,1976,1996,1997,1,2366,2383,2388,1,60,59,60,1
0.052,2069,2074,2079,1,2080,2098,2096,1,2102,2120,2126,1,2102,2101,2126,1,2041,2052,2064,1,1976,1996,1997,1,2366,2383,2389,1,60,59,60,1
0.054,2069,2074,2079,1,2080,2098,2096,1,2102,2120,2126,1,2102,2101,2126,1,2041,2052,2065,1,1976,1996,1997,1,2366,2383,2388,1,60,59,60,1
0.055,2069,2074,2079,1,2080,2098,2096,1,2102,2120,2126,1,2102,2101,2127,1,2041,2050,2063,1,1977,1994,1996,1,2366,2380,2389,1,60,59,60,1
0.056,2070,2075,2079,1,2081,2099,2096,1,2103,2121,2126,1,2103,2102,2127,1,2043,2054,2065,1,1980,1999,1997,1,2369,2386,2389,1,60,59,60,1
0.057,2069,2075,2079,1,2081,2099,2096,1,2103,2121,2127,1,2103,2102,2127,1,2041,2053,2068,1,1977,1998,1999,1,2367,2384,2390,1,60,59,60,1
0.058,2070,2075,2080,1,2081,2099,2096,1,2104,2122,2127,1,2104,2103,2128,1,2043,2055,2067,1,1980,1999,1999,1,2369,2385,2390,1,60,59,60,1
0.058,2070,2076,2081,1,2081,2100,2097,1,2104,2122,2127,1,2104,2103,2129,1,2043,2055,2067,1,1980,1999,2000,1,2369,2385,2391,1,60,59,60,1
0.059,2071,2076,2081,1,2082,2100,2097,1,2105,2123,2127,1,2105,2103,2129,1,2044,2055,2067,1,1980,2000,2000,1,2370,2385,2391,1,60,59,60,1
0.06,2071,2076,2081,1,2082,2100,2097,1,2105,2123,2127,1,2105,2103,2129,1,2045,2055,2068,1,1981,2000,2001,1,2370,2385,2392,1,60,59,60,1
0.061,2071,2076,2081,1,2082,2100,2097,1,2105,2123,2127,1,2105,2103,2129,1,2045,2055,2068,1,1981,1999,2001,1,2370,2391,2391,1,60,59,60,1
0.062,2071,2075,2081,1,2082,2099,2097,1,2105,2122,2127,1,2105,2103,2130,1,2045,2052,2066,1,1981,1995,2000,1,2370,2385,2392,1,60,59,60,1
0.063,2072,2076,2081,1,2082,2100,2097,1,2105,2123,2127,1,2106,2103,2128,1,2047,2056,2068,1,1984,2000,2000,1,2373,2389,2390,1,60,59,60,1
0.064,2070,2075,2080,1,2081,2099,2097,1,2103,2122,2126,1,2104,2103,2127,1,2044,2053,2067,1,1979,1997,1998,1,2369,2385,2389,1,60,59,60,1
0.065,2069,2075,2080,1,2080,2099,2096,1,2102,2122,2126,1,2102,2103,2127,1,2042,2053,2067,1,1976,1997,1998,1,2367,2384,2389,1,60,59,60,1
0.066,2069,2075,2079,1,2080,2099,2096,1,2102,2122,2126,1,2102,2103,2127,1,2042,2053,2065,1,1976,1997,1997,1,2366,2384,2388,1,60,59,60,1
0.067,2069,2074,2079,1,2080,2098,2096,1,2102,2121,2126,1,2102,2102,2127,1,2042,2052,2065,1,1976,1996,1997,1,2366,2383,2387,1,60,59,60,1
0.069,2069,2074,2079,1,2080,2097,2096,1,2102,2120,2126,1,2102,2102,2128,1,2042,2050,2064,1,1976,1993,1996,1,2366,2380,2388,1,60,59,60,1
0.069,2069,2075,2079,1,2080,2097,2096,1,2103,2121,2126,1,2103,2102,2128,1,2044,2054,2064,1,1979,1998,1996,1,2369,2385,2387,1,60,59,60,1
0.071,2068,2074,2079,1,2080,2097,2096,1,2102,2120,2126,1,2102,2102,2127,1,2041,2051,2066,1,1975,1994,1997,1,2366,2381,2388,1,60,59,60,1
0.072,2069,2073,2079,1,2080,2097,2096,1,2103,2121,2126,1,2103,2102,2128,1,2043,2052,2065,1,1977,1995,1996,1,2367,2382,2388,1,60,59,60,1
0.072,2069,2074,2080,1,2080,2097,2096,1,2103,2121,2126,1,2103,2102,2129,1,2043,2052,2065,1,1977,1995,1997,1,2367,2382,2389,1,60,59,60,1
0.073,2070,2075,2080,1,2081,2098,2096,1,2104,2122,2126,1,2104,2103,2129,1,2043,2053,2065,1,1979,1996,1997,1,2368,2382,2389,1,60,59,60,1
0.074,2071,2075,2081,1,2082,2098,2097,1,2105,2122,2127,1,2105,2103,2129,1,2044,2053,2067,1,1981,1996,2000,1,2369,2382,2390,1,60,59,60,1
0.075,2071,2076,2081,1,2082,2099,2097,1,2104,2122,2127,1,2104,2103,2129,1,2042,2054,2068,1,1978,1997,2001,1,2367,2382,2390,1,60,59,60,1
0.076,2071,2076,2081,1,2082,2099,2097,1,2105,2122,2127,1,2105,2103,2130,1,2044,2052,2067,1,1980,1994,2000,1,2369,2380,2391,1,60,59,60,1
0.077,2072,2077,2081,1,2083,2100,2097,1,2106,2124,2127,1,2106,2104,2129,1,2047,2057,2069,1,1985,2000,2001,1,2373,2386,2391,1,60,59,60,1
0.078,2071,2077,2081,1,2083,2100,2097,1,2105,2124,2127,1,2105,2104,2129,1,2044,2055,2068,1,1981,1998,2001,1,2370,2383,2391,1,60,59,60,1
0.079,2070,2077,2081,1,2082,2100,2097,1,2104,2124,2127,1,2104,2104,2129,1,2043,2055,2068,1,1979,1999,2001,1,2369,2383,2391,1,60,59,60,1
0.08,2070,2077,2080,1,2081,2100,2096,1,2103,2124,2126,1,2104,2104,2128,1,2043,2055,2066,1,1979,1999,1999,1,2368,2383,2390,1,60,59,60,1
0.081,2070,2075,2080,1,2081,2098,2096,1,2103,2121,2126,1,2104,2103,2128,1,2043,2054,2066,1,1979,1998,1998,1,2368,2382,2388,1,60,59,60,1
0.082,2070,2074,2080,1,2081,2098,2095,1,2103,2120,2126,1,2104,2102,2128,1,2043,2052,2064,1,1980,1995,1996,1,2368,2379,2389,1,60,59,60,1
0.083,2070,2075,2079,1,2081,2098,2095,1,2103,2121,2126,1,2104,2102,2127,1,2044,2055,2065,1,1982,1999,1997,1,2370,2384,2388,1,60,59,60,1
0.084,2069,2074,2079,1,2080,2097,2095,1,2102,2120,2126,1,2103,2102,2126,1,2041,2050,2066,1,1977,1993,1998,1,2367,2379,2388,1,60,59,60,1
0.086,2069,2073,2079,1,2080,2096,2095,1,2102,2120,2125,1,2103,2101,2127,1,2042,2051,2064,1,1978,1994,1997,1,2367,2381,2388,1,60,59,60,1
0.086,2069,2074,2079,1,2080,2097,2095,1,2102,2120,2125,1,2103,2101,2127,1,2042,2051,2064,1,1978,1994,1997,1,2367,2381,2389,1,60,59,60,1
0.087,2069,2074,2079,1,2079,2097,2095,1,2102,2120,2125,1,2102,2101,2127,1,2041,2051,2064,1,1977,1995,1997,1,2367,2381,2389,1,60,59,60,1
0.088,2069,2074,2079,1,2079,2097,2095,1,2102,2120,2125,1,2103,2101,2127,1,2042,2051,2064,1,1978,1995,1997,1,2367,2381,2389,1,60,59,60,1
0.089,2069,2074,2079,1,2079,2097,2095,1,2102,2120,2125,1,2103,2102,2127,1,2042,2052,2066,1,1978,1996,1998,1,2367,2388,2388,1,60,59,60,1
0.09,2070,2074,2080,1,2080,2097,2095,1,2103,2120,2126,1,2104,2102,2128,1,2043,2050,2065,1,1980,1993,1998,1,2368,2384,2390,1,60,59,60,1
0.091,2071,2076,2080,1,2081,2098,2096,1,2105,2122,2126,1,2106,2103,2128,1,2046,2055,2067,1,1985,1999,1999,1,2372,2389,2390,1,60,59,60,1
0.092,2070,2076,2080,1,2081,2099,2097,1,2104,2122,2127,1,2105,2103,2129,1,2044,2054,2068,1,1981,1997,2000,1,2369,2386,2391,1,60,59,60,1
0.093,2071,2076,2081,1,2082,2099,2097,1,2104,2122,2127,1,2105,2103,2129,1,2043,2055,2068,1,1980,1999,2000,1,2369,2386,2391,1,60,59,60,1
0.094,2071,2076,2081,1,2082,2099,2097,1,2104,2122,2127,1,2105,2103,2129,1,2043,2055,2068,1,1980,1999,2000,1,2369,2386,2392,1,60,59,60,1
0.095,2071,2076,2081,1,2082,2099,2097,1,2104,2122,2127,1,2105,2103,2129,1,2043,2055,2068,1,1980,1999,2000,1,2369,2385,2390,1,60,59,60,1
0.096,2071,2075,2081,1,2082,2098,2096,1,2104,2121,2127,1,2104,2103,2129,1,2043,2052,2066,1,1980,1996,1999,1,2368,2382,2391,1,60,59,60,1
0.097,2071,2075,2081,1,2082,2098,2096,1,2104,2122,2126,1,2104,2103,2128,1,2044,2056,2066,1,1982,2000,1999,1,2370,2387,2389,1,60,59,60,1
0.098,2070,2074,2080,1,2081,2097,2096,1,2103,2121,2126,1,2103,2102,2126,1,2041,2050,2067,1,1977,1994,1999,1,2367,2381,2388,1,60,59,60,1
0.099,2070,2073,2080,1,2081,2097,2096,1,2103,2120,2126,1,2103,2101,2127,1,2043,2051,2065,1,1979,1994,1997,1,2368,2382,2388,1,60,59,60,1
0.1,2070,2074,2080,1,2081,2097,2096,1,2103,2120,2126,1,2103,2101,2127,1,2043,2051,2064,1,1979,1994,1996,1,2368,2382,2388,1,60,59,60,1
0.101,2069,2074,2080,1,2080,2097,2096,1,2103,2120,2126,1,2102,2101,2127,1,2042,2051,2064,1,1977,1994,1996,1,2368,2381,2388,1,60,59,60,1
0.102,2069,2074,2079,1,2080,2097,2095,1,2103,2120,2125,1,2102,2101,2126,1,2042,2051,2064,1,1977,1994,1996,1,2367,2381,2388,1,60,59,60,1
0.103,2069,2074,2079,1,2080,2097,2095,1,2103,2119,2125,1,2102,2101,2126,1,2042,2051,2065,1,1977,1994,1997,1,2367,2388,2387,1,60,59,60,1
0.104,2069,2074,2079,1,2080,2097,2095,1,2103,2119,2125,1,2103,2101,2127,1,2043,2048,2064,1,1979,1991,1996,1,2369,2383,2388,1,60,59,60,1
0.105,2070,2075,2079,1,2081,2098,2095,1,2104,2120,2125,1,2104,2101,2127,1,2045,2053,2066,1,1983,1996,1998,1,2372,2387,2388,1,60,59,60,1
0.106,2069,2075,2079,1,2081,2098,2096,1,2103,2120,2126,1,2103,2101,2127,1,2042,2052,2067,1,1979,1995,2000,1,2369,2384,2389,1,60,59,60,1
0.107,2070,2075,2080,1,2082,2099,2096,1,2104,2121,2126,1,2103,2102,2127,1,2043,2054,2067,1,1979,1998,2000,1,2368,2385,2389,1,60,59,60,1
0.108,2071,2075,2081,1,2082,2099,2097,1,2104,2121,2127,1,2103,2102,2129,1,2044,2054,2068,1,1980,1998,2001,1,2368,2385,2390,1,60,59,60,1
0.109,2071,2076,2081,1,2082,2099,2097,1,2104,2122,2127,1,2103,2103,2129,1,2044,2055,2068,1,1980,1999,2001,1,2368,2386,2389,1,60,59,60,1
0.11,2071,2076,2082,1,2082,2099,2097,1,2105,2122,2127,1,2104,2103,2130,1,2045,2053,2067,1,1982,1997,2000,1,2369,2383,2391,1,60,59,60,1
0.111,2072,2077,2082,1,2082,2100,2097,1,2106,2123,2127,1,2105,2104,2129,1,2047,2057,2069,1,1985,2002,2001,1,2372,2389,2391,1,60,59,60,1
0.112,2071,2076,2081,1,2082,2099,2097,1,2105,2122,2127,1,2104,2104,2128,1,2044,2052,2070,1,1980,1996,2001,1,2369,2383,2390,1,60,59,60,1
0.113,2071,2074,2081,1,2082,2098,2096,1,2105,2121,2127,1,2104,2103,2129,1,2045,2052,2068,1,1981,1996,2000,1,2369,2383,2390,1,60,59,60,1
0.114,2071,2074,2080,1,2082,2098,2096,1,2105,2121,2126,1,2104,2103,2128,1,2045,2052,2065,1,1981,1996,1998,1,2369,2383,2389,1,60,59,60,1
0.115,2070,2074,2080,1,2081,2098,2096,1,2103,2121,2126,1,2102,2103,2128,1,2042,2052,2065,1,1978,1996,1998,1,2368,2382,2389,1,60,59,60,1
0.116,2070,2074,2080,1,2080,2098,2095,1,2103,2121,2125,1,2102,2103,2127,1,2042,2052,2064,1,1978,1996,1998,1,2367,2382,2388,1,60,59,60,1
0.117,2070,2073,2080,1,2080,2097,2095,1,2103,2119,2125,1,2102,2102,2127,1,2042,2051,2064,1,1978,1995,1998,1,2367,2387,2387,1,60,59,60,1
0.118,2070,2073,2080,1,2080,2097,2095,1,2103,2119,2125,1,2102,2102,2128,1,2042,2048,2063,1,1979,1992,1997,1,2367,2381,2388,1,60,59,60,1
0.119,2071,2074,2080,1,2080,2098,2095,1,2103,2120,2125,1,2103,2102,2127,1,2044,2052,2064,1,1982,1997,1997,1,2370,2386,2387,1,60,59,60,1
0.12,2070,2074,2079,1,2080,2098,2095,1,2102,2120,2125,1,2102,2102,2127,1,2041,2050,2064,1,1977,1995,1997,1,2367,2383,2388,1,60,59,60,1
0.121,2069,2074,2079,1,2080,2098,2095,1,2102,2120,2125,1,2102,2102,2127,1,2040,2051,2064,1,1976,1996,1997,1,2366,2383,2388,1,59,59,60,1
0.122,2069,2074,2079,1,2080,2098,2095,1,2103,2120,2125,1,2103,2102,2127,1,2041,2051,2065,1,1977,1996,1997,1,2366,2383,2389,1,59,59,60,1
0.123,2069,2075,2080,1,2080,2099,2095,1,2103,2121,2126,1,2103,2103,2127,1,2041,2053,2066,1,1977,1998,1998,1,2366,2384,2389,1,59,59,60,1
0.124,2070,2075,2080,1,2081,2099,2095,1,2104,2121,2126,1,2104,2103,2128,1,2043,2052,2065,1,1980,1997,1998,1,2368,2382,2391,1,59,59,60,1
0.125,2071,2076,2080,1,2082,2100,2095,1,2106,2123,2127,1,2105,2104,2128,1,2046,2057,2066,1,1984,2003,1999,1,2371,2388,2391,1,59,59,60,1
0.126,2071,2076,2080,1,2082,2100,2096,1,2105,2123,2127,1,2104,2104,2128,1,2044,2054,2068,1,1980,2000,2001,1,2368,2385,2391,1,59,59,60,1
0.127,2071,2075,2080,1,2082,2099,2096,1,2106,2122,2127,1,2105,2103,2129,1,2045,2054,2067,1,1982,2000,2000,1,2370,2386,2392,1,59,59,60,1
0.128,2071,2076,2080,1,2082,2100,2096,1,2106,2122,2127,1,2105,2103,2130,1,2045,2054,2067,1,1982,2000,2000,1,2370,2386,2392,1,59,59,60,1
0.129,2071,2076,2080,1,2081,2100,2096,1,2105,2122,2127,1,2104,2103,2130,1,2044,2054,2067,1,1980,2000,2000,1,2370,2385,2392,1,59,59,60,1
0.13,2071,2076,2080,1,2081,2100,2096,1,2104,2122,2127,1,2103,2103,2129,1,2044,2054,2066,1,1980,2000,1999,1,2369,2385,2391,1,59,59,60,1
0.131,2071,2075,2080,1,2081,2098,2096,1,2104,2120,2126,1,2103,2102,2128,1,2044,2053,2066,1,1980,1998,1999,1,2369,2390,2389,1,59,59,60,1
0.132,2070,2074,2080,1,2081,2097,2095,1,2104,2119,2125,1,2103,2102,2128,1,2044,2050,2064,1,1980,1994,1998,1,2368,2384,2389,1,59,59,60,1
0.133,2070,2075,2080,1,2081,2097,2095,1,2104,2120,2125,1,2104,2102,2127,1,2045,2054,2065,1,1983,1999,1998,1,2371,2388,2388,1,59,59,60,1
0.134,2069,2074,2079,1,2080,2097,2095,1,2102,2120,2125,1,2102,2102,2126,1,2042,2052,2064,1,1978,1997,1998,1,2368,2385,2388,1,59,59,60,1
0.135,2068,2074,2079,1,2080,2097,2095,1,2101,2120,2125,1,2102,2102,2127,1,2040,2053,2064,1,1976,1998,1998,1,2366,2384,2388,1,59,59,60,1
0.136,2068,2074,2079,1,2080,2097,2095,1,2101,2120,2125,1,2102,2102,2127,1,2040,2053,2064,1,1976,1998,1998,1,2365,2384,2388,1,59,59,60,1
0.137,2068,2074,2079,1,2080,2097,2095,1,2101,2120,2125,1,2102,2102,2127,1,2040,2052,2064,1,1976,1997,1998,1,2365,2383,2387,1,59,59,60,1
0.138,2069,2074,2079,1,2080,2097,2095,1,2103,2120,2125,1,2103,2102,2127,1,2041,2050,2064,1,1977,1995,1998,1,2363,2381,2387,1,59,59,60,1
0.139,2070,2075,2079,1,2081,2098,2095,1,2104,2121,2125,1,2104,2102,2127,1,2044,2055,2065,1,1981,2000,1999,1,2367,2387,2387,1,59,59,60,1
0.14,2070,2075,2079,1,2081,2098,2096,1,2103,2120,2126,1,2103,2102,2127,1,2042,2051,2068,1,1977,1995,2001,1,2365,2382,2388,1,59,59,60,1
0.141,2071,2075,2080,1,2082,2098,2096,1,2104,2121,2126,1,2104,2103,2129,1,2044,2054,2067,1,1980,1998,2000,1,2368,2384,2390,1,59,59,60,1
0.142,2071,2076,2081,1,2082,2099,2097,1,2104,2121,2127,1,2104,2103,2130,1,2044,2054,2068,1,1980,1998,2000,1,2368,2384,2392,1,59,59,60,1
0.143,2071,2076,2081,1,2083,2099,2097,1,2105,2122,2127,1,2105,2103,2130,1,2045,2055,2068,1,1981,1999,2000,1,2370,2384,2392,1,59,59,60,1
0.144,2071,2076,2081,1,2083,2099,2097,1,2105,2122,2127,1,2105,2103,2130,1,2045,2055,2069,1,1982,1999,2001,1,2370,2384,2393,1,59,59,60,1
0.145,2071,2076,2081,1,2083,2099,2097,1,2105,2121,2127,1,2105,2103,2130,1,2045,2055,2069,1,1982,1999,2001,1,2370,2391,2392,1,59,59,60,1
0.146,2071,2075,2081,1,2083,2099,2097,1,2105,2121,2127,1,2105,2103,2130,1,2045,2052,2067,1,1982,1996,2000,1,2370,2386,2393,1,59,59,60,1
0.147,2071,2076,2081,1,2083,2099,2097,1,2105,2122,2127,1,2105,2103,2129,1,2047,2056,2067,1,1985,2001,2000,1,2373,2390,2391,1,59,59,60,1
0.148,2069,2075,2080,1,2082,2099,2097,1,2103,2121,2126,1,2103,2102,2128,1,2044,2053,2066,1,1980,1998,1999,1,2369,2386,2390,1,59,59,60,1
0.149,2068,2075,2080,1,2081,2098,2096,1,2102,2121,2126,1,2102,2102,2128,1,2042,2053,2066,1,1977,1999,1999,1,2367,2385,2390,1,59,59,60,1
0.15,2068,2075,2080,1,2081,2098,2095,1,2102,2121,2126,1,2102,2102,2127,1,2042,2053,2065,1,1977,1999,1998,1,2366,2385,2389,1,59,59,60,1
0.151,2068,2074,2080,1,2081,2098,2095,1,2102,2120,2126,1,2102,2102,2127,1,2042,2052,2065,1,1977,1998,1998,1,2366,2384,2388,1,59,59,60,1
0.152,2069,2074,2080,1,2080,2098,2095,1,2103,2120,2126,1,2103,2101,2127,1,2042,2050,2065,1,1977,1995,1998,1,2363,2381,2388,1,59,59,60,1
0.153,2070,2074,2080,1,2080,2098,2095,1,2103,2121,2126,1,2103,2101,2127,1,2044,2054,2066,1,1980,2000,1999,1,2366,2386,2388,1,59,59,60,1
0.154,2069,2074,2079,1,2080,2098,2095,1,2102,2120,2126,1,2102,2101,2126,1,2041,2051,2067,1,1976,1997,2000,1,2364,2382,2388,1,59,59,60,1
0.155,2069,2073,2079,1,2080,2097,2095,1,2102,2121,2126,1,2103,2102,2127,1,2043,2052,2066,1,1978,1998,1999,1,2366,2384,2389,1,59,59,60,1
0.156,2069,2074,2079,1,2080,2098,2095,1,2102,2121,2126,1,2103,2102,2128,1,2043,2052,2066,1,1978,1998,2000,1,2366,2384,2391,1,59,59,60,1
0.157,2069,2075,2079,1,2081,2099,2095,1,2103,2122,2126,1,2103,2102,2128,1,2044,2053,2066,1,1980,1999,2000,1,2368,2384,2391,1,59,59,60,1
0.158,2070,2075,2081,1,2081,2099,2096,1,2104,2122,2127,1,2104,2102,2129,1,2045,2053,2068,1,1981,1999,2001,1,2369,2384,2392,1,59,59,60,1
0.159,2070,2075,2081,1,2081,2099,2096,1,2104,2123,2127,1,2104,2103,2129,1,2045,2055,2069,1,1981,2000,2002,1,2369,2392,2392,1,59,59,60,1
0.16,2070,2075,2081,1,2082,2099,2096,1,2105,2122,2127,1,2105,2103,2130,1,2046,2052,2068,1,1983,1997,2002,1,2370,2387,2393,1,59,59,60,1
0.161,2071,2076,2081,1,2083,2100,2096,1,2106,2124,2127,1,2106,2104,2129,1,2049,2057,2070,1,1987,2003,2003,1,2374,2392,2393,1,59,59,60,1
0.162,2070,2076,2081,1,2082,2100,2096,1,2105,2123,2127,1,2105,2104,2128,1,2046,2055,2069,1,1982,2000,2002,1,2371,2388,2392,1,59,59,60,1
0.163,2069,2076,2081,1,2081,2100,2096,1,2103,2123,2127,1,2103,2104,2128,1,2044,2055,2069,1,1980,2000,2002,1,2370,2387,2392,1,59,59,60,1
0.164,2069,2076,2080,1,2081,2100,2096,1,2103,2123,2127,1,2103,2104,2128,1,2044,2055,2068,1,1980,2000,2000,1,2369,2387,2391,1,59,59,60,1
0.165,2069,2075,2080,1,2081,2098,2096,1,2103,2121,2126,1,2103,2103,2128,1,2044,2054,2068,1,1980,1999,2000,1,2369,2386,2389,1,59,59,60,1
0.166,2069,2075,2080,1,2081,2098,2096,1,2103,2120,2126,1,2103,2102,2128,1,2044,2052,2066,1,1980,1996,1999,1,2368,2383,2390,1,59,59,60,1
0.167,2070,2075,2080,1,2081,2098,2096,1,2103,2121,2126,1,2104,2102,2128,1,2045,2055,2066,1,1983,2001,1999,1,2371,2388,2389,1,59,59,60,1
0.168,2069,2074,2079,1,2080,2097,2096,1,2102,2120,2126,1,2103,2101,2127,1,2042,2052,2067,1,1979,1997,2000,1,2368,2384,2390,1,59,59,60,1
0.169,2069,2073,2079,1,2080,2097,2096,1,2102,2120,2126,1,2103,2101,2128,1,2043,2052,2066,1,1980,1997,1999,1,2369,2384,2390,1,59,59,60,1
0.17,2069,2074,2079,1,2080,2097,2096,1,2102,2120,2126,1,2103,2101,2128,1,2043,2052,2065,1,1980,1997,1999,1,2369,2384,2391,1,59,59,60,1
0.171,2069,2074,2079,1,2080,2097,2096,1,2102,2120,2126,1,2103,2101,2128,1,2042,2053,2065,1,1980,1997,1999,1,2369,2384,2391,1,59,59,60,1
0.172,2069,2074,2079,1,2080,2097,2096,1,2103,2120,2126,1,2103,2101,2128,1,2043,2053,2066,1,1981,1997,2000,1,2369,2384,2391,1,59,59,60,1
0.173,2069,2074,2080,1,2080,2098,2096,1,2102,2121,2126,1,2102,2102,2128,1,2041,2053,2068,1,1977,1998,2001,1,2367,2384,2391,1,59,59,60,1
0.174,2070,2074,2081,1,2081,2098,2096,1,2104,2121,2127,1,2104,2103,2129,1,2044,2051,2067,1,1981,1996,2000,1,2370,2381,2392,1,59,59,60,1
0.175,2072,2076,2081,1,2082,2099,2096,1,2106,2123,2127,1,2106,2104,2129,1,2047,2056,2069,1,1986,2002,2002,1,2374,2387,2392,1,59,59,60,1
0.176,2071,2076,2081,1,2082,2099,2097,1,2105,2123,2127,1,2105,2104,2129,1,2045,2054,2069,1,1982,2000,2003,1,2371,2385,2393,1,59,59,60,1
0.177,2071,2076,2082,1,2083,2099,2097,1,2105,2123,2127,1,2105,2104,2129,1,2045,2055,2069,1,1981,2002,2003,1,2371,2386,2393,1,59,59,60,1
0.178,2071,2076,2082,1,2083,2099,2097,1,2105,2123,2127,1,2105,2104,2129,1,2045,2055,2069,1,1981,2002,2003,1,2371,2386,2394,1,59,59,60,1
0.179,2071,2076,2082,1,2083,2099,2097,1,2105,2122,2127,1,2105,2104,2129,1,2045,2055,2069,1,1981,2002,2003,1,2371,2387,2392,1,59,59,60,1
0.18,2071,2075,2082,1,2083,2098,2096,1,2105,2121,2127,1,2105,2103,2130,1,2045,2053,2067,1,1981,1999,2002,1,2370,2384,2393,1,59,59,60,1
0.181,2071,2075,2081,1,2083,2098,2096,1,2105,2122,2127,1,2105,2103,2129,1,2046,2057,2067,1,1983,2003,2002,1,2372,2389,2391,1,59,59,60,1
0.182,2070,2074,2080,1,2082,2098,2096,1,2103,2121,2126,1,2103,2102,2128,1,2043,2054,2069,1,1979,1999,2002,1,2369,2385,2390,1,59,59,60,1
0.183,2070,2073,2080,1,2082,2097,2096,1,2103,2120,2126,1,2103,2102,2128,1,2044,2053,2067,1,1981,1998,2000,1,2370,2384,2390,1,59,59,60,1
0.184,2070,2074,2080,1,2082,2097,2096,1,2103,2120,2126,1,2103,2102,2128,1,2044,2053,2066,1,1981,1998,2000,1,2370,2384,2390,1,59,59,60,1
0.185,2069,2074,2080,1,2081,2097,2096,1,2103,2120,2126,1,2102,2102,2128,1,2043,2053,2066,1,1979,1998,2000,1,2370,2384,2390,1,59,59,60,1
0.186,2069,2074,2079,1,2081,2097,2096,1,2103,2120,2126,1,2102,2102,2127,1,2043,2053,2066,1,1980,1998,2000,1,2369,2384,2390,1,59,59,60,1
0.187,2069,2074,2079,1,2081,2097,2096,1,2103,2119,2126,1,2102,2101,2127,1,2043,2053,2067,1,1980,1998,2000,1,2369,2390,2389,1,59,59,60,1
0.188,2069,2074,2079,1,2081,2097,2096,1,2103,2119,2126,1,2103,2101,2128,1,2045,2050,2066,1,1982,1995,1999,1,2371,2385,2390,1,59,59,60,1
0.189,2070,2075,2079,1,2081,2098,2096,1,2105,2121,2126,1,2105,2101,2127,1,2048,2055,2068,1,1986,2000,2001,1,2374,2390,2390,1,59,59,60,1
0.19,2069,2075,2079,1,2081,2098,2096,1,2104,2121,2126,1,2104,2102,2129,1,2045,2054,2068,1,1982,1998,2002,1,2371,2387,2392,1,59,59,60,1
0.191,2070,2076,2080,1,2082,2099,2096,1,2105,2122,2126,1,2104,2103,2129,1,2045,2056,2068,1,1982,2000,2002,1,2371,2387,2392,1,59,59,60,1
0.192,2070,2076,2081,1,2082,2099,2097,1,2105,2122,2127,1,2104,2103,2129,1,2046,2056,2069,1,1983,2000,2003,1,2371,2387,2394,1,59,59,60,1
0.193,2070,2076,2081,1,2082,2100,2097,1,2105,2123,2128,1,2104,2104,2129,1,2046,2057,2070,1,1983,2002,2004,1,2371,2388,2393,1,59,59,60,1
0.194,2070,2076,2081,1,2082,2100,2097,1,2105,2123,2128,1,2104,2104,2130,1,2046,2055,2068,1,1984,2000,2003,1,2371,2386,2395,1,59,59,60,1
0.195,2071,2077,2081,1,2082,2101,2097,1,2106,2124,2128,1,2105,2104,2129,1,2048,2059,2070,1,1987,2005,2004,1,2374,2391,2394,1,59,59,60,1
0.196,2070,2076,2081,1,2082,2100,2097,1,2105,2123,2128,1,2104,2104,2128,1,2045,2056,2071,1,1982,2001,2004,1,2371,2387,2393,1,59,59,60,1
0.197,2070,2074,2081,1,2082,2098,2097,1,2105,2121,2128,1,2104,2103,2129,1,2046,2054,2069,1,1983,2000,2003,1,2372,2386,2393,1,59,59,60,1
0.198,2070,2075,2081,1,2082,2098,2096,1,2105,2121,2126,1,2104,2103,2128,1,2046,2054,2068,1,1983,2000,2001,1,2372,2386,2392,1,59,59,60,1
0.199,2070,2075,2081,1,2081,2098,2096,1,2104,2121,2126,1,2103,2103,2128,1,2044,2054,2068,1,1981,2000,2001,1,2371,2385,2392,1,59,59,60,1
0.2,2070,2075,2080,1,2081,2098,2096,1,2104,2121,2126,1,2103,2103,2128,1,2045,2054,2067,1,1981,2000,2000,1,2370,2385,2391,1,59,59,60,1
0.201,2070,2074,2080,1,2081,2097,2096,1,2104,2120,2126,1,2103,2102,2128,1,2045,2054,2067,1,1981,1999,2000,1,2370,2390,2390,1,59,59,60,1
0.202,2070,2074,2080,1,2081,2097,2096,1,2104,2120,2126,1,2104,2102,2129,1,2046,2051,2066,1,1983,1995,1999,1,2372,2385,2391,1,59,59,60,1
0.203,2071,2075,2080,1,2081,2098,2096,1,2105,2121,2126,1,2105,2102,2128,1,2048,2055,2068,1,1986,2000,2000,1,2375,2389,2391,1,59,59,60,1
0.204,2070,2075,2080,1,2081,2098,2096,1,2104,2121,2126,1,2104,2102,2127,1,2045,2053,2067,1,1981,1998,2000,1,2371,2385,2391,1,59,59,60,1
0.205,2070,2075,2080,1,2081,2098,2096,1,2103,2121,2126,1,2104,2102,2127,1,2043,2054,2067,1,1979,2000,2000,1,2370,2385,2391,1,59,59,60,1
0.206,2070,2075,2080,1,2081,2098,2096,1,2103,2121,2126,1,2104,2102,2128,1,2044,2054,2068,1,1980,2000,2001,1,2370,2385,2392,1,59,59,60,1
0.207,2070,2075,2081,1,2081,2099,2096,1,2103,2122,2127,1,2104,2103,2128,1,2044,2056,2069,1,1980,2001,2002,1,2370,2387,2392,1,59,59,60,1
0.208,2071,2075,2082,1,2082,2099,2097,1,2104,2122,2127,1,2105,2103,2130,1,2045,2055,2068,1,1982,2000,2002,1,2371,2386,2394,1,59,59,60,1
0.209,2072,2077,2082,1,2082,2100,2097,1,2106,2124,2128,1,2106,2104,2130,1,2048,2059,2069,1,1986,2006,2003,1,2374,2392,2394,1,59,59,60,1
0.21,2072,2076,2082,1,2082,2100,2097,1,2105,2123,2128,1,2105,2104,2129,1,2046,2055,2071,1,1983,2000,2005,1,2371,2387,2394,1,59,59,60,1
0.211,2072,2075,2082,1,2082,2099,2097,1,2106,2123,2128,1,2106,2104,2130,1,2047,2056,2070,1,1985,2002,2004,1,2373,2388,2395,1,59,59,60,1
0.211,2072,2076,2082,1,2082,2100,2097,1,2106,2123,2128,1,2106,2104,2131,1,2047,2056,2069,1,1985,2002,2004,1,2373,2388,2395,1,59,59,60,1
0.213,2071,2076,2082,1,2082,2100,2097,1,2105,2123,2128,1,2105,2104,2131,1,2046,2056,2069,1,1984,2002,2004,1,2373,2387,2395,1,59,59,60,1
0.213,2071,2076,2081,1,2082,2100,2096,1,2105,2123,2128,1,2105,2104,2129,1,2046,2056,2068,1,1984,2002,2003,1,2372,2387,2394,1,59,59,60,1
0.215,2071,2075,2081,1,2082,2098,2096,1,2105,2121,2127,1,2105,2103,2128,1,2046,2054,2068,1,1984,2001,2003,1,2372,2392,2393,1,59,59,60,1
0.216,2071,2075,2081,1,2082,2098,2096,1,2104,2121,2127,1,2105,2103,2129,1,2045,2051,2066,1,1983,1997,2001,1,2370,2386,2393,1,60,59,60,1
0.217,2072,2075,2081,1,2082,2099,2096,1,2105,2122,2126,1,2106,2103,2129,1,2047,2055,2066,1,1987,2002,2001,1,2373,2390,2391,1,60,59,60,1
0.218,2070,2075,2080,1,2081,2098,2096,1,2104,2121,2126,1,2104,2103,2128,1,2044,2053,2066,1,1982,1999,2001,1,2370,2386,2391,1,60,59,60,1
0.219,2069,2075,2080,1,2080,2098,2096,1,2103,2121,2126,1,2103,2103,2128,1,2043,2054,2066,1,1981,2000,2001,1,2369,2386,2391,1,60,59,60,1
0.22,2069,2075,2080,1,2080,2098,2096,1,2103,2121,2126,1,2103,2103,2128,1,2043,2054,2066,1,1981,2000,2001,1,2369,2386,2392,1,60,59,60,1
0.221,2069,2075,2080,1,2080,2098,2096,1,2103,2121,2126,1,2103,2103,2128,1,2043,2054,2067,1,1981,2000,2001,1,2369,2386,2391,1,60,59,60,1
0.222,2069,2075,2080,1,2080,2098,2096,1,2103,2121,2126,1,2104,2103,2129,1,2044,2052,2066,1,1983,1998,2000,1,2370,2384,2392,1,60,59,60,1
0.223,2071,2076,2080,1,2081,2099,2096,1,2105,2122,2126,1,2105,2103,2129,1,2047,2057,2068,1,1986,2004,2002,1,2373,2390,2392,1,60,59,60,1
0.224,2071,2076,2080,1,2081,2099,2097,1,2104,2122,2126,1,2104,2103,2129,1,2045,2055,2070,1,1982,2001,2004,1,2371,2387,2392,1,60,59,60,1
0.225,2072,2075,2081,1,2082,2099,2097,1,2105,2124,2127,1,2105,2104,2130,1,2047,2057,2069,1,1985,2003,2004,1,2373,2389,2394,1,60,59,60,1
0.225,2072,2076,2082,1,2082,2100,2098,1,2105,2124,2128,1,2105,2104,2131,1,2047,2057,2070,1,1985,2003,2005,1,2373,2389,2396,1,60,59,60,1
0.226,2072,2076,2082,1,2083,2100,2098,1,2106,2124,2128,1,2106,2104,2131,1,2047,2057,2070,1,1986,2004,2005,1,2373,2389,2396,1,60,59,60,1
0.227,2072,2076,2082,1,2083,2100,2098,1,2106,2124,2128,1,2106,2104,2131,1,2047,2057,2070,1,1986,2004,2006,1,2373,2389,2396,1,60,59,60,1
0.228,2072,2076,2082,1,2083,2100,2098,1,2106,2123,2128,1,2106,2104,2130,1,2047,2057,2070,1,1986,2003,2006,1,2373,2395,2395,1,60,59,60,1
0.229,2072,2076,2082,1,2083,2100,2098,1,2106,2122,2128,1,2106,2104,2131,1,2047,2054,2068,1,1986,1999,2005,1,2373,2389,2396,1,60,59,60,1
0.231,2072,2076,2082,1,2083,2100,2098,1,2106,2123,2128,1,2106,2104,2130,1,2049,2058,2069,1,1989,2004,2005,1,2376,2393,2394,1,60,59,60,1
0.232,2071,2075,2081,1,2082,2099,2098,1,2105,2122,2128,1,2104,2104,2128,1,2046,2055,2068,1,1984,2001,2003,1,2372,2389,2393,1,60,59,60,1
0.233,2070,2075,2081,1,2081,2099,2097,1,2104,2122,2128,1,2103,2104,2128,1,2044,2055,2068,1,1982,2002,2003,1,2370,2388,2393,1,60,59,60,1
0.234,2070,2075,2080,1,2081,2099,2096,1,2104,2122,2128,1,2103,2104,2128,1,2044,2055,2068,1,1982,2002,2003,1,2370,2388,2393,1,60,59,60,1
0.235,2070,2075,2080,1,2081,2098,2096,1,2104,2122,2128,1,2103,2103,2128,1,2044,2055,2068,1,1982,2001,2003,1,2370,2388,2392,1,60,59,60,1
0.236,2070,2075,2080,1,2081,2098,2096,1,2104,2122,2128,1,2103,2103,2129,1,2045,2053,2066,1,1982,1999,2002,1,2370,2385,2393,1,60,59,60,1
0.237,2071,2076,2080,1,2081,2099,2096,1,2105,2123,2128,1,2104,2103,2128,1,2047,2057,2068,1,1985,2004,2003,1,2373,2390,2392,1,60,59,60,1
0.238,2070,2075,2080,1,2081,2098,2096,1,2104,2122,2128,1,2103,2103,2128,1,2044,2053,2070,1,1981,1998,2004,1,2370,2384,2392,1,60,59,60,1
0.239,2070,2074,2080,1,2081,2098,2096,1,2105,2123,2128,1,2104,2104,2129,1,2045,2055,2068,1,1983,2000,2003,1,2371,2386,2393,1,60,59,60,1
0.239,2070,2075,2081,1,2081,2099,2097,1,2105,2123,2128,1,2104,2104,2130,1,2045,2055,2069,1,1983,2000,2004,1,2371,2386,2394,1,60,59,60,1
0.24,2072,2076,2081,1,2082,2099,2097,1,2106,2124,2128,1,2105,2104,2130,1,2046,2056,2069,1,1984,2002,2004,1,2372,2387,2394,1,60,59,60,1
0.241,2072,2076,2082,1,2083,2099,2098,1,2107,2124,2128,1,2106,2104,2130,1,2047,2056,2071,1,1985,2002,2006,1,2372,2387,2396,1,60,59,60,1
0.242,2072,2076,2082,1,2083,2100,2098,1,2107,2124,2128,1,2106,2105,2130,1,2047,2058,2072,1,1985,2003,2007,1,2372,2395,2396,1,60,59,60,1
0.243,2073,2076,2082,1,2084,2100,2098,1,2108,2124,2128,1,2107,2105,2131,1,2049,2056,2070,1,1988,2001,2006,1,2375,2391,2397,1,60,59,60,1
0.245,2073,2077,2082,1,2084,2101,2098,1,2108,2126,2128,1,2108,2105,2131,1,2051,2060,2071,1,1992,2006,2007,1,2378,2395,2396,1,60,59,60,1
0.245,2072,2077,2082,1,2084,2101,2098,1,2106,2125,2128,1,2106,2105,2129,1,2048,2058,2070,1,1987,2004,2006,1,2375,2391,2395,1,60,59,60,1
0.246,2071,2077,2082,1,2083,2101,2098,1,2105,2125,2128,1,2105,2105,2130,1,2046,2058,2070,1,1984,2005,2006,1,2373,2390,2395,1,60,59,60,1
0.247,2071,2077,2082,1,2082,2101,2097,1,2105,2125,2128,1,2105,2105,2130,1,2045,2058,2069,1,1983,2005,2004,1,2371,2390,2394,1,60,59,60,1
0.249,2071,2076,2082,1,2082,2100,2097,1,2105,2123,2128,1,2105,2104,2130,1,2045,2057,2069,1,1983,2003,2004,1,2371,2389,2393,1,60,59,60,1
0.25,2071,2075,2082,1,2081,2099,2097,1,2104,2122,2128,1,2105,2103,2130,1,2045,2055,2069,1,1983,2000,2004,1,2367,2386,2393,1,60,59,60,1
0.251,2071,2076,2081,1,2081,2099,2097,1,2105,2123,2128,1,2105,2103,2130,1,2047,2058,2069,1,1985,2005,2003,1,2370,2391,2392,1,60,59,60,1
0.252,2070,2076,2081,1,2081,2099,2097,1,2103,2123,2128,1,2103,2103,2129,1,2044,2057,2070,1,1981,2004,2004,1,2368,2388,2392,1,60,59,60,1
0.253,2070,2075,2081,1,2081,2098,2096,1,2103,2121,2128,1,2103,2103,2129,1,2045,2056,2068,1,1982,2003,2003,1,2369,2388,2392,1,60,59,60,1
0.253,2070,2076,2081,1,2081,2099,2096,1,2103,2122,2128,1,2103,2103,2129,1,2045,2056,2067,1,1982,2003,2002,1,2369,2388,2393,1,60,59,60,1
0.254,2070,2076,2081,1,2081,2099,2096,1,2103,2122,2128,1,2103,2103,2129,1,2044,2056,2067,1,1981,2003,2002,1,2370,2388,2393,1,60,59,60,1
0.255,2070,2076,2081,1,2081,2099,2096,1,2104,2122,2128,1,2104,2103,2129,1,2045,2056,2068,1,1982,2003,2003,1,2370,2388,2394,1,60,59,60,1
0.256,2070,2076,2081,1,2081,2100,2096,1,2104,2123,2128,1,2104,2104,2129,1,2045,2056,2069,1,1982,2004,2005,1,2370,2389,2394,1,60,59,60,1
0.257,2071,2076,2081,1,2082,2100,2096,1,2105,2123,2128,1,2105,2104,2130,1,2046,2055,2068,1,1984,2002,2005,1,2371,2387,2396,1,60,59,60,1
0.258,2072,2077,2081,1,2083,2101,2097,1,2107,2125,2129,1,2106,2105,2130,1,2049,2060,2071,1,1989,2008,2006,1,2375,2393,2396,1,60,59,60,1
0.259,2071,2077,2081,1,2083,2101,2098,1,2106,2125,2129,1,2105,2105,2129,1,2047,2059,2073,1,1986,2007,2007,1,2373,2391,2397,1,60,59,60,1
0.26,2072,2076,2082,1,2083,2101,2098,1,2107,2125,2129,1,2106,2105,2130,1,2049,2059,2072,1,1988,2006,2007,1,2376,2391,2397,1,60,59,60,1
0.261,2072,2077,2082,1,2083,2101,2098,1,2107,2125,2129,1,2106,2105,2131,1,2048,2059,2071,1,1987,2006,2007,1,2374,2391,2397,1,60,59,60,1
0.262,2072,2077,2082,1,2083,2100,2098,1,2107,2124,2129,1,2106,2104,2130,1,2048,2058,2071,1,1987,2005,2007,1,2374,2390,2395,1,60,59,60,1
0.263,2072,2076,2082,1,2083,2100,2098,1,2106,2123,2129,1,2106,2104,2130,1,2047,2056,2071,1,1985,2003,2007,1,2374,2387,2395,1,60,59,60,1
0.264,2072,2076,2082,1,2083,2100,2098,1,2106,2124,2128,1,2106,2104,2130,1,2048,2059,2071,1,1987,2007,2006,1,2375,2392,2393,1,60,59,60,1
0.266,2071,2075,2081,1,2082,2099,2098,1,2104,2123,2128,1,2105,2104,2129,1,2045,2056,2071,1,1982,2003,2006,1,2372,2388,2392,1,60,59,60,1
0.267,2071,2074,2081,1,2082,2098,2097,1,2104,2121,2127,1,2105,2103,2129,1,2045,2056,2069,1,1983,2002,2004,1,2372,2388,2393,1,60,59,60,1
0.268,2071,2075,2080,1,2082,2099,2097,1,2105,2123,2127,1,2105,2103,2128,1,2045,2056,2069,1,1983,2002,2004,1,2372,2388,2392,1,60,59,60,1
0.268,2071,2075,2080,1,2082,2099,2097,1,2105,2123,2127,1,2105,2103,2128,1,2045,2056,2069,1,1983,2003,2004,1,2372,2389,2392,1,60,59,60,1
0.269,2071,2075,2080,1,2082,2099,2097,1,2105,2123,2127,1,2105,2103,2129,1,2045,2056,2068,1,1983,2003,2003,1,2372,2389,2393,1,60,59,60,1
0.27,2071,2075,2080,1,2082,2099,2097,1,2105,2122,2127,1,2105,2103,2129,1,2045,2056,2069,1,1983,2002,2003,1,2372,2388,2392,1,60,59,60,1
0.271,2071,2075,2080,1,2082,2099,2097,1,2105,2122,2127,1,2105,2103,2130,1,2045,2054,2068,1,1984,2000,2002,1,2372,2385,2393,1,60,59,60,1
0.272,2072,2076,2080,1,2082,2100,2097,1,2106,2123,2127,1,2106,2103,2130,1,2048,2058,2070,1,1988,2005,2004,1,2375,2391,2393,1,60,59,60,1
0.273,2071,2076,2080,1,2082,2100,2097,1,2105,2123,2127,1,2105,2103,2129,1,2046,2057,2072,1,1984,2004,2005,1,2372,2389,2395,1,60,59,60,1
0.274,2072,2076,2081,1,2083,2101,2097,1,2106,2124,2127,1,2106,2105,2130,1,2048,2059,2071,1,1987,2006,2005,1,2375,2390,2395,1,60,59,60,1
0.275,2072,2077,2082,1,2083,2101,2098,1,2106,2124,2128,1,2106,2105,2131,1,2048,2059,2072,1,1987,2006,2006,1,2374,2390,2397,1,60,59,60,1
0.276,2072,2078,2082,1,2083,2101,2098,1,2106,2125,2129,1,2106,2105,2131,1,2048,2059,2072,1,1987,2006,2007,1,2374,2392,2396,1,60,59,60,1
0.277,2073,2078,2082,1,2084,2101,2098,1,2107,2125,2129,1,2107,2105,2131,1,2048,2058,2072,1,1988,2005,2007,1,2375,2390,2396,1,60,59,60,1
0.278,2073,2078,2082,1,2084,2102,2098,1,2107,2126,2129,1,2107,2105,2131,1,2049,2062,2072,1,1990,2010,2007,1,2377,2395,2395,1,60,59,60,1
0.279,2072,2077,2082,1,2083,2101,2098,1,2106,2125,2129,1,2105,2105,2130,1,2046,2059,2073,1,1986,2007,2007,1,2374,2391,2394,1,60,59,60,1
0.28,2072,2076,2082,1,2083,2099,2098,1,2106,2123,2128,1,2105,2104,2131,1,2047,2054,2070,1,1986,2005,2006,1,2374,2390,2395,1,60,59,60,1
0.282,2073,2076,2081,1,2082,2099,2098,1,2105,2123,2128,1,2105,2104,2130,1,2046,2058,2070,1,1984,2005,2006,1,2373,2390,2394,1,60,59,60,1
0.282,2071,2076,2081,1,2082,2099,2098,1,2105,2123,2128,1,2105,2104,2130,1,2046,2058,2070,1,1984,2005,2006,1,2373,2390,2394,1,60,59,60,1
0.283,2071,2076,2080,1,2082,2099,2097,1,2105,2123,2128,1,2105,2104,2129,1,2046,2058,2069,1,1984,2005,2004,1,2371,2390,2394,1,60,59,60,1
0.284,2071,2075,2080,1,2082,2098,2097,1,2105,2122,2128,1,2105,2103,2129,1,2046,2056,2069,1,1984,2003,2004,1,2371,2389,2393,1,60,59,60,1
0.285,2071,2075,2080,1,2082,2098,2097,1,2105,2122,2128,1,2105,2103,2130,1,2046,2054,2067,1,1984,2000,2003,1,2371,2386,2394,1,60,59,60,1
0.286,2071,2076,2080,1,2082,2099,2097,1,2106,2123,2128,1,2106,2103,2129,1,2048,2058,2068,1,1987,2005,2003,1,2374,2391,2393,1,60,59,60,1
0.287,2070,2075,2080,1,2082,2099,2097,1,2105,2122,2128,1,2105,2103,2128,1,2045,2055,2070,1,1983,2002,2004,1,2371,2387,2394,1,60,59,60,1
0.289,2070,2074,2080,1,2082,2098,2097,1,2105,2122,2128,1,2105,2103,2129,1,2046,2056,2069,1,1985,2003,2004,1,2372,2388,2394,1,60,59,60,1
0.289,2070,2075,2081,1,2082,2099,2097,1,2105,2122,2128,1,2105,2103,2130,1,2046,2056,2070,1,1985,2003,2005,1,2372,2388,2395,1,60,59,60,1
0.29,2070,2076,2081,1,2082,2100,2097,1,2105,2123,2128,1,2105,2104,2130,1,2046,2058,2071,1,1985,2005,2006,1,2372,2390,2395,1,60,59,60,1
0.291,2072,2076,2081,1,2083,2100,2097,1,2106,2123,2128,1,2106,2104,2130,1,2048,2058,2071,1,1987,2004,2006,1,2374,2389,2395,1,60,59,60,1
0.292,2073,2077,2082,1,2083,2102,2097,1,2107,2125,2128,1,2107,2105,2130,1,2050,2062,2071,1,1990,2010,2007,1,2377,2395,2395,1,60,59,60,1
0.293,2073,2077,2082,1,2083,2102,2098,1,2107,2125,2129,1,2106,2105,2130,1,2048,2058,2073,1,1986,2006,2008,1,2374,2391,2395,1,60,59,60,1
0.294,2073,2077,2082,1,2083,2101,2098,1,2107,2124,2129,1,2106,2105,2131,1,2049,2055,2072,1,1988,2006,2007,1,2375,2392,2397,1,60,59,60,1
0.295,2075,2078,2082,1,2084,2101,2098,1,2106,2125,2129,1,2106,2105,2131,1,2049,2059,2072,1,1987,2006,2007,1,2375,2392,2396,1,60,59,60,1
0.296,2073,2078,2082,1,2084,2100,2098,1,2106,2125,2129,1,2106,2105,2131,1,2049,2059,2072,1,1987,2006,2007,1,2375,2392,2396,1,60,59,60,1
0.297,2072,2078,2081,1,2084,2100,2097,1,2106,2125,2129,1,2106,2105,2130,1,2048,2059,2071,1,1986,2006,2006,1,2374,2392,2395,1,60,59,60,1
0.298,2072,2076,2081,1,2084,2099,2097,1,2106,2123,2128,1,2106,2104,2130,1,2048,2057,2071,1,1986,2004,2006,1,2374,2390,2393,1,60,59,60,1
0.299,2071,2075,2081,1,2083,2098,2097,1,2106,2122,2128,1,2106,2104,2131,1,2048,2054,2069,1,1985,2001,2005,1,2373,2387,2394,1,60,59,60,1
0.3,2071,2076,2081,1,2083,2099,2097,1,2106,2123,2128,1,2106,2104,2130,1,2049,2058,2070,1,1988,2006,2005,1,2375,2392,2393,1,60,59,60,1
0.301,2070,2076,2080,1,2082,2099,2097,1,2105,2122,2128,1,2104,2104,2129,1,2046,2055,2071,1,1984,2002,2006,1,2372,2388,2393,1,60,59,60,1
0.302,2070,2075,2080,1,2082,2098,2097,1,2105,2122,2128,1,2104,2103,2129,1,2047,2055,2069,1,1986,2002,2004,1,2373,2388,2394,1,60,59,60,1
0.303,2070,2076,2080,1,2082,2098,2097,1,2105,2122,2128,1,2104,2103,2129,1,2046,2055,2069,1,1985,2002,2004,1,2372,2388,2395,1,60,59,60,1
0.304,2070,2076,2080,1,2082,2099,2097,1,2105,2123,2128,1,2104,2103,2129,1,2046,2056,2069,1,1985,2003,2004,1,2372,2389,2394,1,60,59,60,1
0.305,2071,2076,2080,1,2083,2099,2097,1,2105,2123,2128,1,2105,2103,2129,1,2046,2055,2069,1,1985,2002,2004,1,2373,2388,2394,1,60,59,60,1
0.306,2072,2077,2080,1,2083,2100,2097,1,2106,2124,2128,1,2106,2104,2129,1,2048,2060,2070,1,1988,2008,2005,1,2375,2394,2394,1,60,59,60,1
0.307,2071,2077,2081,1,2083,2100,2098,1,2105,2124,2128,1,2106,2104,2129,1,2046,2059,2072,1,1985,2006,2007,1,2373,2391,2394,1,60,59,60,1
0.308,2072,2077,2082,1,2083,2100,2098,1,2106,2123,2129,1,2107,2104,2131,1,2048,2055,2071,1,1988,2002,2007,1,2376,2393,2396,1,60,59,60,1
0.309,2074,2078,2082,1,2084,2101,2098,1,2107,2125,2129,1,2108,2105,2131,1,2049,2059,2072,1,1989,2008,2008,1,2377,2393,2396,1,60,59,60,1
0.31,2073,2078,2082,1,2084,2101,2098,1,2107,2125,2129,1,2108,2105,2131,1,2049,2060,2072,1,1989,2009,2008,1,2377,2394,2396,1,60,59,60,1
0.311,2073,2078,2082,1,2084,2101,2098,1,2107,2125,2129,1,2108,2105,2131,1,2049,2060,2072,1,1989,2009,2009,1,2376,2394,2397,1,60,59,60,1
0.312,2073,2077,2082,1,2084,2100,2098,1,2107,2124,2129,1,2108,2105,2131,1,2049,2059,2072,1,1989,2008,2009,1,2376,2393,2396,1,60,59,60,1
0.313,2073,2077,2082,1,2084,2100,2098,1,2107,2124,2129,1,2107,2105,2131,1,2049,2056,2070,1,1989,2005,2007,1,2375,2390,2397,1,60,59,60,1
0.314,2073,2077,2082,1,2084,2100,2098,1,2107,2125,2128,1,2107,2105,2130,1,2050,2060,2071,1,1991,2009,2007,1,2377,2394,2396,1,60,59,60,1
0.315,2071,2076,2081,1,2083,2099,2098,1,2105,2124,2128,1,2105,2104,2129,1,2047,2057,2072,1,1986,2005,2007,1,2374,2389,2395,1,60,59,60,1
0.316,2071,2074,2081,1,2083,2098,2097,1,2105,2122,2128,1,2105,2103,2130,1,2047,2056,2070,1,1987,2004,2005,1,2374,2388,2395,1,60,59,60,1
0.317,2071,2075,2081,1,2082,2099,2096,1,2104,2122,2128,1,2105,2103,2130,1,2046,2056,2069,1,1985,2004,2004,1,2372,2388,2395,1,60,59,60,1
0.318,2071,2075,2081,1,2082,2099,2096,1,2104,2123,2128,1,2105,2103,2130,1,2046,2056,2069,1,1985,2004,2004,1,2372,2389,2394,1,60,59,60,1
0.319,2071,2075,2081,1,2082,2099,2096,1,2105,2123,2128,1,2105,2103,2130,1,2046,2055,2069,1,1985,2003,2004,1,2373,2387,2394,1,60,59,60,1
0.32,2071,2076,2081,1,2082,2100,2096,1,2105,2124,2128,1,2105,2103,2130,1,2047,2059,2069,1,1987,2007,2004,1,2374,2392,2393,1,60,59,60,1
0.321,2070,2076,2081,1,2082,2100,2096,1,2104,2123,2128,1,2104,2103,2129,1,2045,2057,2071,1,1983,2004,2005,1,2371,2389,2393,1,60,59,60,1
0.322,2071,2075,2081,1,2082,2099,2096,1,2105,2122,2128,1,2105,2103,2130,1,2047,2054,2069,1,1986,1999,2004,1,2374,2390,2394,1,60,59,60,1
0.323,2073,2076,2081,1,2083,2100,2097,1,2107,2124,2128,1,2106,2104,2130,1,2048,2059,2071,1,1987,2005,2006,1,2375,2390,2394,1,60,59,60,1
0.324,2072,2077,2081,1,2083,2101,2097,1,2107,2125,2128,1,2106,2105,2130,1,2048,2061,2071,1,1987,2008,2006,1,2375,2393,2394,1,60,59,60,1
0.325,2072,2077,2082,1,2083,2101,2098,1,2107,2125,2129,1,2106,2105,2131,1,2048,2061,2072,1,1988,2008,2008,1,2375,2393,2397,1,60,59,60,1
0.326,2072,2077,2082,1,2083,2101,2098,1,2107,2125,2129,1,2106,2106,2131,1,2048,2061,2073,1,1988,2008,2008,1,2375,2393,2396,1,60,58,60,1
0.327,2073,2077,2082,1,2084,2101,2098,1,2108,2125,2129,1,2108,2106,2131,1,2049,2059,2073,1,1989,2006,2008,1,2372,2390,2396,1,60,58,60,1
0.328,2074,2078,2082,1,2084,2102,2098,1,2108,2126,2129,1,2108,2106,2131,1,2051,2062,2073,1,1992,2011,2009,1,2376,2395,2396,1,60,58,60,1
0.329,2073,2077,2081,1,2084,2101,2098,1,2107,2124,2129,1,2107,2106,2130,1,2048,2057,2074,1,1988,2005,2009,1,2373,2389,2396,1,60,58,60,1
0.33,2073,2076,2081,1,2084,2100,2098,1,2107,2123,2129,1,2107,2105,2131,1,2049,2057,2072,1,1989,2004,2008,1,2374,2395,2397,1,60,476,60,1
0.331,2072,2076,2081,1,2083,2100,2098,1,2106,2123,2129,1,2106,2105,2130,1,2048,2057,2071,1,1987,2004,2006,1,2385,2395,2422,1,1252,476,2071,1
0.332,2072,2076,2081,1,2083,2100,2098,1,2106,2123,2129,1,2106,2105,2130,1,2048,2057,2071,1,1987,2004,2006,1,2385,2416,2427,1,1252,2291,2660,1
0.333,2071,2076,2081,1,2083,2100,2098,1,2105,2123,2129,1,2105,2105,2130,1,2047,2056,2071,1,1986,2003,2006,1,2403,2419,2427,1,2672,2814,2660,1
0.334,2071,2076,2081,1,2083,2100,2097,1,2105,2124,2128,1,2105,2105,2130,1,2048,2060,2071,1,1987,2008,2006,1,2409,2428,2430,1,3081,3181,3073,1
0.335,2070,2075,2081,1,2082,2100,2097,1,2104,2123,2128,1,2104,2104,2129,1,2045,2058,2072,1,1983,2005,2006,1,2410,2428,2432,1,3367,3438,3362,1
0.336,2071,2075,2081,1,2082,2099,2097,1,2105,2122,2128,1,2105,2104,2130,1,2047,2054,2070,1,1986,2000,2005,1,2415,2432,2436,1,3567,3743,3565,1
0.337,2073,2076,2081,1,2082,2099,2097,1,2106,2123,2128,1,2106,2104,2129,1,2047,2058,2071,1,1986,2005,2005,1,2418,2432,2437,1,3805,3743,3706,1
0.338,2072,2077,2081,1,2082,2099,2097,1,2106,2123,2128,1,2106,2104,2129,1,2047,2059,2071,1,1986,2006,2005,1,2418,2435,2437,1,3805,3892,3706,1
0.339,2072,2077,2081,1,2082,2099,2097,1,2106,2123,2128,1,2106,2104,2130,1,2047,2059,2071,1,1986,2006,2006,1,2418,2435,2441,1,3874,3892,3875,1
0.34,2072,2077,2081,1,2082,2100,2097,1,2106,2124,2128,1,2106,2105,2130,1,2047,2059,2072,1,1986,2006,2007,1,2418,2437,2441,1,3874,3965,3923,1
0.341,2072,2077,2082,1,2083,2100,2097,1,2106,2124,2129,1,2106,2105,2132,1,2048,2058,2071,1,1987,2005,2007,1,2419,2435,2443,1,3922,3986,3957,1
0.342,2073,2078,2082,1,2084,2101,2098,1,2107,2126,2129,1,2107,2106,2132,1,2051,2062,2072,1,1991,2010,2008,1,2423,2441,2443,1,3956,4001,3981,1
0.343,2073,2078,2082,1,2084,2101,2098,1,2107,2125,2129,1,2106,2106,2131,1,2049,2058,2074,1,1987,2005,2010,1,2421,2436,2443,1,3980,4012,4010,1
0.344,2073,2077,2082,1,2084,2100,2098,1,2107,2125,2129,1,2107,2106,2132,1,2050,2059,2073,1,1989,2007,2009,1,2423,2438,2445,1,3997,4024,4010,1
0.345,2073,2078,2082,1,2084,2101,2098,1,2107,2125,2129,1,2107,2106,2132,1,2049,2059,2072,1,1988,2007,2009,1,2422,2438,2445,1,4008,4024,4023,1
0.346,2073,2077,2082,1,2084,2100,2098,1,2107,2125,2129,1,2107,2105,2132,1,2049,2059,2072,1,1988,2007,2008,1,2422,2438,2443,1,4008,4030,4027,1
0.347,2072,2077,2082,1,2083,2100,2098,1,2106,2124,2129,1,2106,2105,2132,1,2048,2058,2072,1,1988,2005,2008,1,2422,2435,2443,1,4022,4032,4027,1
0.348,2072,2077,2082,1,2083,2100,2098,1,2106,2124,2128,1,2106,2105,2131,1,2049,2061,2072,1,1989,2009,2008,1,2423,2440,2441,1,4026,4033,4030,1
0.349,2071,2077,2081,1,2082,2100,2098,1,2105,2123,2128,1,2104,2104,2130,1,2046,2058,2073,1,1985,2006,2008,1,2420,2436,2440,1,4029,4034,4032,1
0.35,2071,2075,2081,1,2082,2099,2097,1,2105,2121,2128,1,2105,2104,2130,1,2047,2054,2071,1,1987,2000,2006,1,2422,2436,2441,1,4031,4035,4033,1
0.351,2072,2076,2081,1,2083,2099,2097,1,2105,2122,2128,1,2105,2104,2129,1,2046,2058,2071,1,1986,2005,2006,1,2421,2436,2440,1,4033,4035,4034,1
0.352,2071,2076,2081,1,2083,2099,2097,1,2105,2123,2128,1,2105,2104,2129,1,2046,2059,2071,1,1986,2006,2006,1,2421,2437,2440,1,4033,4035,4034,1
0.353,2071,2076,2081,1,2083,2099,2097,1,2105,2123,2128,1,2105,2104,2129,1,2046,2059,2070,1,1985,2006,2006,1,2420,2437,2442,1,4034,4035,4036,1
0.354,2071,2076,2081,1,2083,2099,2097,1,2105,2123,2128,1,2105,2104,2129,1,2046,2058,2070,1,1985,2005,2006,1,2420,2436,2440,1,4034,4035,4036,1
0.355,2071,2076,2081,1,2083,2099,2097,1,2105,2123,2128,1,2105,2104,2130,1,2046,2056,2069,1,1985,2003,2005,1,2420,2434,2442,1,4035,4035,4036,1
0.356,2072,2077,2081,1,2084,2100,2097,1,2106,2124,2128,1,2107,2104,2130,1,2049,2060,2070,1,1989,2008,2006,1,2423,2439,2441,1,4035,4035,4036,1
0.357,2071,2077,2081,1,2084,2100,2098,1,2105,2124,2129,1,2106,2104,2130,1,2047,2058,2073,1,1986,2005,2008,1,2420,2436,2441,1,4035,4035,4036,1
0.358,2072,2076,2082,1,2084,2100,2098,1,2106,2125,2129,1,2107,2105,2131,1,2049,2060,2072,1,1989,2007,2008,1,2422,2438,2443,1,4035,4035,4036,1
0.359,2072,2077,2083,1,2084,2101,2098,1,2106,2125,2129,1,2107,2105,2132,1,2049,2060,2073,1,1989,2007,2008,1,2421,2438,2445,1,4035,4035,4036,1
0.36,2072,2078,2083,1,2084,2102,2099,1,2106,2125,2129,1,2107,2106,2132,1,2049,2061,2073,1,1989,2009,2009,1,2421,2439,2444,1,4035,4035,4036,1
0.361,2073,2078,2083,1,2085,2102,2099,1,2107,2125,2129,1,2108,2106,2132,1,2049,2060,2073,1,1990,2008,2009,1,2422,2437,2444,1,4035,4035,4036,1
0.362,2073,2079,2083,1,2085,2102,2099,1,2107,2126,2129,1,2108,2106,2132,1,2050,2064,2073,1,1991,2013,2009,1,2424,2442,2443,1,4035,4036,4036,1
0.363,2072,2078,2083,1,2084,2101,2099,1,2106,2125,2129,1,2106,2106,2131,1,2047,2059,2074,1,1987,2007,2009,1,2421,2437,2442,1,4035,4036,4036,1
0.364,2072,2076,2083,1,2084,2100,2098,1,2107,2123,2129,1,2107,2106,2131,1,2050,2055,2072,1,1991,2001,2007,1,2424,2437,2443,1,4035,4036,4036,1
0.365,2073,2076,2082,1,2083,2100,2098,1,2106,2124,2129,1,2106,2106,2130,1,2049,2059,2072,1,1988,2006,2007,1,2423,2437,2441,1,4036,4036,4036,1
0.366,2072,2076,2082,1,2083,2100,2098,1,2106,2124,2129,1,2106,2105,2130,1,2049,2059,2072,1,1988,2007,2007,1,2423,2438,2441,1,4036,4036,4036,1
0.367,2072,2076,2082,1,2083,2100,2097,1,2106,2124,2128,1,2106,2105,2130,1,2048,2059,2071,1,1987,2007,2006,1,2421,2438,2441,1,4036,4036,4036,1
0.368,2072,2076,2082,1,2083,2100,2097,1,2106,2123,2128,1,2106,2104,2130,1,2048,2058,2071,1,1987,2006,2006,1,2421,2437,2440,1,4036,4036,4036,1
0.369,2072,2075,2082,1,2083,2100,2097,1,2106,2122,2128,1,2106,2104,2131,1,2048,2056,2070,1,1987,2003,2005,1,2420,2434,2442,1,4036,4036,4036,1
0.37,2072,2076,2082,1,2083,2100,2097,1,2106,2123,2128,1,2106,2104,2130,1,2050,2060,2071,1,1990,2008,2006,1,2423,2439,2441,1,4036,4036,4036,1
0.371,2071,2076,2082,1,2083,2099,2097,1,2105,2122,2128,1,2105,2104,2129,1,2047,2057,2072,1,1985,2005,2007,1,2420,2435,2440,1,4036,4036,4036,1
0.372,2071,2075,2082,1,2083,2098,2097,1,2106,2123,2128,1,2106,2104,2130,1,2048,2058,2070,1,1987,2006,2006,1,2421,2436,2441,1,4036,4036,4036,1
0.373,2071,2076,2082,1,2083,2099,2097,1,2106,2123,2128,1,2106,2104,2131,1,2048,2058,2071,1,1987,2006,2007,1,2421,2436,2443,1,4036,4036,4036,1
0.374,2071,2077,2082,1,2083,2100,2098,1,2106,2125,2129,1,2106,2105,2131,1,2048,2060,2072,1,1987,2008,2008,1,2421,2438,2442,1,4036,4036,4036,1
0.375,2072,2077,2082,1,2084,2100,2098,1,2107,2125,2129,1,2107,2105,2131,1,2049,2060,2072,1,1989,2007,2008,1,2423,2437,2442,1,4036,4036,4036,1
0.376,2073,2078,2082,1,2084,2101,2098,1,2108,2126,2129,1,2108,2105,2131,1,2051,2064,2073,1,1992,2012,2009,1,2425,2443,2442,1,4036,4036,4036,1
0.377,2073,2078,2082,1,2084,2101,2098,1,2107,2126,2129,1,2107,2105,2131,1,2049,2062,2075,1,1988,2010,2010,1,2422,2440,2442,1,4036,4036,4036,1
0.378,2074,2077,2083,1,2084,2100,2098,1,2108,2125,2129,1,2108,2105,2132,1,2052,2057,2073,1,1993,2004,2010,1,2426,2439,2444,1,4036,4036,4036,1
0.379,2075,2077,2083,1,2083,2101,2098,1,2107,2126,2129,1,2107,2105,2131,1,2051,2061,2073,1,1991,2009,2010,1,2425,2439,2443,1,4036,4036,4036,1
0.38,2073,2077,2083,1,2083,2100,2098,1,2107,2125,2129,1,2107,2105,2131,1,2051,2060,2073,1,1991,2009,2010,1,2425,2439,2443,1,4036,4036,4036,1
0.381,2073,2077,2082,1,2083,2100,2098,1,2106,2125,2129,1,2106,2105,2131,1,2050,2060,2072,1,1989,2009,2008,1,2423,2439,2443,1,4036,4036,4036,1
0.382,2073,2076,2082,1,2083,2100,2098,1,2106,2123,2128,1,2106,2104,2130,1,2050,2059,2072,1,1989,2007,2008,1,2423,2437,2441,1,4036,4036,4036,1
0.383,2072,2076,2082,1,2083,2100,2097,1,2106,2123,2128,1,2106,2104,2130,1,2049,2056,2070,1,1988,2004,2006,1,2422,2434,2443,1,4036,4036,4036,1
0.384,2072,2076,2082,1,2083,2100,2097,1,2106,2124,2128,1,2106,2104,2130,1,2050,2060,2070,1,1991,2008,2006,1,2424,2439,2441,1,4036,4036,4036,1
0.385,2071,2075,2081,1,2082,2099,2097,1,2105,2122,2128,1,2104,2104,2129,1,2047,2055,2072,1,1986,2002,2007,1,2420,2433,2440,1,4036,4036,4036,1
0.386,2071,2074,2081,1,2082,2098,2097,1,2105,2122,2128,1,2105,2104,2129,1,2048,2057,2070,1,1988,2004,2006,1,2421,2434,2441,1,4036,4036,4036,1
0.387,2071,2075,2081,1,2082,2099,2097,1,2105,2122,2128,1,2105,2104,2130,1,2048,2057,2069,1,1987,2004,2006,1,2419,2434,2441,1,4036,4036,4036,1
0.39,2071,2076,2081,1,2082,2100,2097,1,2105,2123,2128,1,2105,2104,2130,1,2048,2058,2070,1,1987,2005,2006,1,2419,2435,2440,1,4036,4036,4036,1
0.39,2072,2076,2081,1,2083,2100,2097,1,2106,2123,2128,1,2106,2104,2130,1,2048,2058,2070,1,1987,2005,2006,1,2420,2434,2440,1,4036,4036,4036,1
0.39,2072,2077,2081,1,2083,2101,2097,1,2107,2124,2128,1,2107,2105,2130,1,2050,2062,2071,1,1990,2010,2007,1,2422,2440,2440,1,4036,4036,4036,1
0.391,2072,2077,2082,1,2083,2101,2098,1,2106,2124,2129,1,2106,2105,2130,1,2048,2060,2073,1,1987,2009,2009,1,2420,2438,2441,1,4036,4036,4036,1
0.392,2073,2077,2083,1,2084,2101,2098,1,2108,2123,2129,1,2107,2105,2132,1,2051,2057,2072,1,1992,2004,2009,1,2425,2434,2444,1,4036,4036,4036,1
0.396,2075,2078,2083,1,2085,2102,2098,1,2109,2125,2129,1,2108,2106,2132,1,2052,2062,2073,1,1992,2010,2010,1,2425,2440,2444,1,4036,4036,4036,1
0.396,2074,2079,2083,1,2085,2103,2098,1,2109,2126,2129,1,2108,2106,2132,1,2052,2063,2073,1,1992,2011,2010,1,2425,2441,2444,1,4036,4036,4036,1
0.396,2074,2079,2083,1,2085,2103,2098,1,2108,2126,2129,1,2108,2106,2132,1,2051,2063,2073,1,1991,2011,2010,1,2424,2441,2445,1,4036,4036,4036,1
0.396,2074,2078,2083,1,2085,2102,2098,1,2108,2125,2129,1,2108,2106,2132,1,2051,2061,2073,1,1991,2010,2010,1,2424,2439,2443,1,4036,4036,4036,1
0.399,2074,2077,2083,1,2084,2101,2098,1,2108,2124,2129,1,2108,2105,2132,1,2051,2058,2071,1,1991,2007,2009,1,2424,2436,2444,1,4036,4036,4036,1
0.4,2074,2077,2083,1,2084,2101,2098,1,2108,2125,2129,1,2108,2105,2131,1,2051,2061,2071,1,1992,2011,2009,1,2425,2440,2442,1,4036,4036,4036,1
0.4,2073,2076,2082,1,2083,2100,2098,1,2106,2123,2129,1,2106,2105,2130,1,2048,2057,2072,1,1987,2004,2009,1,2421,2434,2441,1,4036,4036,4036,1
0.401,2073,2075,2082,1,2083,2099,2098,1,2106,2122,2128,1,2106,2104,2130,1,2049,2057,2071,1,1988,2005,2007,1,2422,2435,2442,1,4036,4036,4036,1
0.401,2072,2076,2081,1,2083,2100,2098,1,2106,2122,2128,1,2106,2104,2131,1,2048,2057,2070,1,1987,2005,2006,1,2420,2435,2442,1,4036,4036,4036,1
0.402,2072,2076,2081,1,2083,2099,2098,1,2106,2123,2128,1,2106,2104,2131,1,2048,2058,2070,1,1987,2005,2006,1,2420,2436,2441,1,4036,4036,4036,1
0.403,2072,2076,2081,1,2082,2099,2098,1,2105,2123,2128,1,2106,2104,2131,1,2047,2057,2070,1,1987,2004,2006,1,2421,2434,2441,1,4036,4036,4036,1
0.404,2072,2077,2081,1,2082,2100,2098,1,2105,2124,2128,1,2106,2104,2131,1,2048,2061,2070,1,1989,2009,2006,1,2422,2440,2440,1,4036,4036,4036,1
0.405,2071,2077,2081,1,2082,2100,2098,1,2104,2124,2128,1,2105,2104,2130,1,2046,2059,2072,1,1985,2006,2007,1,2419,2437,2440,1,4036,4036,4036,1
0.406,2072,2077,2082,1,2083,2100,2098,1,2106,2123,2128,1,2107,2104,2131,1,2049,2055,2071,1,1990,2002,2007,1,2423,2438,2442,1,4036,4036,4036,1
0.407,2074,2078,2082,1,2084,2101,2098,1,2107,2125,2129,1,2108,2105,2131,1,2050,2060,2072,1,1990,2008,2009,1,2424,2438,2442,1,4036,4036,4036,1
0.408,2073,2079,2082,1,2084,2102,2098,1,2107,2126,2129,1,2108,2106,2131,1,2050,2062,2072,1,1990,2010,2009,1,2424,2440,2442,1,4036,4036,4036,1
0.409,2073,2079,2083,1,2084,2102,2098,1,2107,2126,2129,1,2108,2106,2132,1,2050,2062,2073,1,1990,2010,2010,1,2423,2440,2444,1,4036,4036,4036,1
0.41,2073,2079,2083,1,2084,2102,2098,1,2107,2126,2129,1,2108,2106,2132,1,2050,2062,2074,1,1990,2010,2011,1,2423,2439,2443,1,4036,4036,4036,1
0.411,2073,2079,2083,1,2084,2102,2098,1,2107,2126,2129,1,2108,2106,2133,1,2050,2060,2073,1,1989,2008,2010,1,2422,2436,2445,1,4036,4036,4036,1
0.412,2073,2079,2083,1,2084,2102,2098,1,2108,2127,2129,1,2109,2106,2133,1,2052,2064,2073,1,1992,2013,2010,1,2425,2441,2444,1,4036,4036,4036,1
0.413,2072,2079,2083,1,2084,2102,2098,1,2107,2126,2129,1,2107,2106,2131,1,2049,2062,2074,1,1988,2011,2011,1,2422,2438,2443,1,4036,4036,4036,1
0.414,2072,2077,2083,1,2084,2100,2098,1,2107,2124,2129,1,2107,2105,2132,1,2050,2060,2072,1,1990,2008,2009,1,2423,2437,2444,1,4036,4036,4036,1
0.415,2071,2077,2082,1,2083,2100,2098,1,2106,2124,2129,1,2106,2105,2131,1,2049,2060,2071,1,1988,2008,2007,1,2421,2437,2444,1,4036,4036,4036,1
0.416,2071,2076,2082,1,2083,2099,2098,1,2106,2123,2129,1,2106,2105,2131,1,2049,2059,2071,1,1988,2007,2007,1,2421,2436,2442,1,4036,4036,4036,1
0.417,2071,2076,2082,1,2082,2099,2098,1,2105,2123,2129,1,2105,2105,2131,1,2048,2057,2071,1,1987,2005,2007,1,2421,2434,2442,1,4036,4036,4036,1
0.418,2071,2076,2082,1,2082,2100,2098,1,2106,2124,2129,1,2106,2105,2130,1,2049,2060,2072,1,1989,2010,2007,1,2422,2439,2441,1,4036,4036,4036,1
0.419,2070,2076,2082,1,2082,2100,2098,1,2105,2123,2129,1,2105,2105,2129,1,2046,2057,2073,1,1985,2005,2008,1,2419,2435,2440,1,4036,4036,4036,1
0.42,2071,2075,2082,1,2082,2099,2098,1,2106,2122,2129,1,2106,2104,2130,1,2048,2053,2071,1,1988,2000,2007,1,2422,2436,2441,1,4036,4036,4036,1
0.421,2073,2076,2082,1,2082,2100,2098,1,2106,2123,2129,1,2106,2104,2130,1,2048,2057,2072,1,1988,2006,2007,1,2422,2436,2441,1,4037,4036,4036,1
0.421,2072,2077,2082,1,2082,2100,2098,1,2106,2124,2129,1,2106,2104,2130,1,2048,2059,2072,1,1988,2008,2007,1,2422,2437,2441,1,4037,4036,4036,1
0.422,2072,2077,2082,1,2083,2100,2098,1,2106,2124,2129,1,2106,2104,2130,1,2049,2059,2072,1,1988,2008,2008,1,2422,2437,2443,1,4036,4036,4036,1
0.424,2072,2077,2082,1,2083,2101,2098,1,2106,2125,2130,1,2106,2105,2130,1,2049,2060,2073,1,1988,2009,2009,1,2422,2438,2442,1,4036,4036,4036,1
0.425,2073,2077,2082,1,2083,2101,2098,1,2107,2125,2130,1,2106,2105,2132,1,2050,2058,2072,1,1989,2007,2009,1,2422,2436,2444,1,4036,4036,4036,1
0.426,2074,2078,2082,1,2084,2102,2098,1,2108,2126,2130,1,2107,2106,2132,1,2052,2063,2073,1,1993,2012,2010,1,2425,2442,2443,1,4036,4036,4036,1
0.427,2073,2078,2082,1,2084,2102,2099,1,2107,2126,2130,1,2106,2106,2132,1,2050,2060,2075,1,1990,2009,2012,1,2422,2438,2443,1,4036,4036,4036,1
0.428,2073,2077,2083,1,2084,2101,2099,1,2108,2125,2130,1,2107,2106,2133,1,2051,2061,2074,1,1992,2009,2011,1,2424,2438,2445,1,4036,4036,4036,1
0.429,2073,2078,2083,1,2084,2101,2099,1,2107,2125,2130,1,2107,2106,2132,1,2050,2061,2073,1,1990,2009,2010,1,2422,2438,2445,1,4036,4036,4036,1
0.43,2073,2078,2083,1,2084,2101,2099,1,2107,2125,2130,1,2107,2106,2131,1,2050,2061,2073,1,1990,2009,2009,1,2422,2438,2443,1,4036,4036,4036,1
0.431,2072,2077,2083,1,2083,2101,2099,1,2106,2124,2130,1,2106,2105,2131,1,2049,2059,2073,1,1989,2007,2009,1,2421,2435,2443,1,4036,4036,4036,1
0.432,2072,2077,2082,1,2083,2101,2098,1,2106,2125,2129,1,2106,2105,2131,1,2050,2062,2073,1,1990,2011,2009,1,2422,2440,2442,1,4036,4036,4036,1
0.433,2071,2076,2082,1,2083,2100,2098,1,2105,2124,2129,1,2105,2105,2130,1,2047,2059,2074,1,1986,2007,2009,1,2419,2437,2441,1,4036,4036,4036,1
0.434,2071,2075,2082,1,2083,2099,2098,1,2105,2122,2129,1,2105,2105,2130,1,2047,2055,2071,1,1987,2001,2008,1,2420,2436,2442,1,4036,4036,4036,1
0.435,2073,2076,2082,1,2082,2099,2098,1,2106,2123,2129,1,2106,2105,2130,1,2047,2059,2072,1,1987,2006,2008,1,2421,2436,2441,1,4036,4036,4036,1
0.435,2072,2077,2082,1,2082,2099,2098,1,2106,2123,2129,1,2106,2105,2130,1,2047,2059,2072,1,1987,2007,2008,1,2421,2437,2441,1,4036,4036,4036,1
0.436,2072,2077,2082,1,2082,2099,2098,1,2106,2123,2128,1,2106,2105,2130,1,2047,2059,2071,1,1987,2007,2007,1,2420,2437,2442,1,4036,4036,4036,1
0.437,2072,2076,2082,1,2082,2099,2098,1,2106,2122,2128,1,2106,2105,2130,1,2047,2059,2072,1,1987,2006,2007,1,2420,2436,2441,1,4036,4036,4036,1
0.439,2072,2076,2082,1,2082,2099,2098,1,2106,2122,2128,1,2106,2105,2131,1,2048,2057,2071,1,1988,2004,2007,1,2420,2434,2443,1,4036,4036,4036,1
0.439,2073,2077,2082,1,2083,2101,2098,1,2107,2124,2128,1,2107,2105,2131,1,2051,2061,2072,1,1992,2009,2008,1,2424,2439,2442,1,4036,4036,4036,1
0.44,2073,2077,2082,1,2083,2101,2099,1,2107,2124,2129,1,2106,2105,2131,1,2049,2058,2074,1,1989,2007,2010,1,2421,2436,2442,1,4036,4036,4036,1
0.442,2073,2077,2083,1,2084,2100,2099,1,2108,2125,2129,1,2107,2106,2132,1,2051,2060,2073,1,1991,2009,2009,1,2423,2438,2444,1,4036,4036,4036,1
0.443,2073,2078,2083,1,2084,2101,2099,1,2108,2125,2130,1,2107,2106,2133,1,2051,2060,2074,1,1990,2009,2010,1,2422,2438,2445,1,4036,4036,4036,1
0.444,2073,2079,2083,1,2084,2102,2099,1,2108,2125,2130,1,2107,2107,2133,1,2051,2062,2074,1,1990,2010,2010,1,2422,2439,2444,1,4036,4036,4036,1
0.445,2074,2079,2083,1,2084,2102,2099,1,2108,2125,2130,1,2108,2107,2133,1,2052,2060,2074,1,1990,2009,2010,1,2423,2437,2444,1,4036,4036,4036,1
0.446,2074,2079,2083,1,2084,2102,2099,1,2108,2126,2130,1,2108,2107,2133,1,2052,2064,2074,1,1992,2014,2010,1,2424,2442,2443,1,4036,4036,4036,1
0.447,2073,2078,2082,1,2084,2101,2099,1,2107,2125,2130,1,2107,2106,2131,1,2049,2059,2074,1,1988,2008,2010,1,2421,2437,2442,1,4036,4036,4036,1
0.448,2073,2077,2082,1,2083,2100,2098,1,2107,2123,2129,1,2107,2105,2131,1,2049,2055,2072,1,1988,2007,2008,1,2421,2437,2443,1,4036,4036,4036,1
0.449,2074,2077,2082,1,2083,2100,2098,1,2106,2124,2129,1,2107,2105,2130,1,2048,2059,2073,1,1988,2007,2008,1,2422,2437,2442,1,4036,4036,4036,1
0.449,2072,2076,2082,1,2083,2100,2098,1,2106,2124,2129,1,2107,2105,2130,1,2048,2059,2073,1,1988,2007,2008,1,2422,2437,2442,1,4036,4036,4036,1
0.45,2072,2076,2082,1,2083,2100,2098,1,2106,2124,2129,1,2107,2105,2130,1,2048,2059,2072,1,1988,2007,2007,1,2421,2437,2442,1,4036,4036,4036,1
0.451,2072,2076,2082,1,2083,2099,2098,1,2106,2123,2128,1,2107,2104,2130,1,2048,2059,2072,1,1988,2006,2007,1,2421,2436,2440,1,4036,4036,4036,1
0.452,2072,2076,2082,1,2083,2099,2097,1,2106,2123,2128,1,2107,2104,2131,1,2048,2057,2070,1,1988,2004,2006,1,2421,2433,2442,1,4036,4036,4037,1
0.453,2072,2077,2082,1,2083,2100,2097,1,2106,2124,2128,1,2107,2104,2131,1,2050,2061,2071,1,1991,2009,2007,1,2424,2438,2441,1,4036,4036,4037,1
0.454,2071,2076,2082,1,2083,2099,2098,1,2105,2123,2128,1,2106,2104,2130,1,2047,2057,2073,1,1987,2004,2009,1,2421,2433,2440,1,4036,4036,4036,1
0.455,2072,2075,2082,1,2083,2099,2098,1,2106,2124,2128,1,2106,2105,2131,1,2049,2059,2071,1,1989,2006,2008,1,2423,2435,2442,1,4036,4036,4036,1
0.456,2072,2077,2083,1,2083,2100,2098,1,2106,2124,2128,1,2106,2105,2132,1,2049,2059,2072,1,1989,2006,2009,1,2422,2435,2444,1,4036,4036,4036,1
0.457,2072,2078,2083,1,2083,2101,2098,1,2106,2126,2129,1,2106,2106,2132,1,2049,2061,2073,1,1989,2008,2010,1,2422,2438,2444,1,4036,4036,4036,1
0.459,2073,2078,2083,1,2084,2101,2098,1,2108,2126,2129,1,2107,2106,2132,1,2050,2060,2073,1,1991,2008,2010,1,2424,2436,2444,1,4036,4036,4036,1
0.46,2073,2079,2083,1,2084,2102,2099,1,2109,2127,2130,1,2108,2106,2132,1,2052,2064,2074,1,1993,2013,2011,1,2426,2442,2444,1,4036,4036,4036,1
0.461,2072,2079,2083,1,2084,2102,2099,1,2108,2126,2130,1,2107,2106,2132,1,2050,2062,2076,1,1990,2011,2012,1,2423,2439,2443,1,4036,4036,4036,1
0.462,2072,2078,2083,1,2084,2101,2099,1,2108,2125,2130,1,2107,2106,2133,1,2051,2058,2074,1,1991,2011,2011,1,2423,2439,2445,1,4036,4036,4036,1
0.463,2074,2078,2083,1,2084,2102,2099,1,2108,2126,2130,1,2107,2106,2132,1,2050,2062,2075,1,1990,2011,2011,1,2423,2439,2444,1,4036,4036,4036,1
0.463,2073,2078,2083,1,2084,2102,2099,1,2108,2126,2130,1,2107,2106,2132,1,2050,2061,2075,1,1990,2010,2011,1,2423,2439,2444,1,4036,4036,4036,1
0.464,2073,2078,2082,1,2084,2102,2099,1,2107,2126,2129,1,2106,2106,2131,1,2050,2061,2073,1,1989,2010,2009,1,2422,2439,2444,1,4036,4036,4036,1
0.465,2073,2077,2082,1,2084,2100,2098,1,2107,2124,2129,1,2106,2105,2130,1,2050,2060,2073,1,1989,2008,2009,1,2422,2438,2442,1,4036,4036,4036,1
0.466,2073,2076,2082,1,2083,2100,2098,1,2107,2123,2129,1,2106,2105,2131,1,2050,2057,2071,1,1989,2005,2008,1,2422,2435,2444,1,4036,4036,4036,1
0.467,2073,2077,2082,1,2083,2100,2098,1,2107,2124,2129,1,2106,2105,2130,1,2051,2061,2072,1,1992,2010,2008,1,2424,2439,2442,1,4036,4036,4036,1
0.468,2071,2077,2082,1,2083,2100,2098,1,2105,2123,2129,1,2105,2105,2129,1,2048,2058,2073,1,1987,2006,2009,1,2420,2435,2442,1,4036,4036,4036,1
0.469,2071,2076,2082,1,2083,2100,2097,1,2105,2123,2129,1,2105,2105,2130,1,2049,2058,2071,1,1989,2006,2008,1,2421,2435,2442,1,4036,4036,4036,1
0.47,2071,2077,2082,1,2083,2100,2097,1,2105,2123,2129,1,2105,2105,2131,1,2049,2058,2071,1,1988,2006,2008,1,2420,2435,2443,1,4036,4036,4036,1
0.471,2071,2077,2082,1,2083,2100,2097,1,2105,2123,2129,1,2105,2105,2131,1,2049,2059,2071,1,1988,2006,2008,1,2420,2436,2442,1,4036,4036,4036,1
0.472,2072,2077,2082,1,2084,2100,2097,1,2106,2123,2129,1,2106,2105,2131,1,2049,2058,2071,1,1989,2005,2008,1,2422,2435,2442,1,4036,4036,4036,1
0.473,2073,2078,2082,1,2084,2101,2097,1,2107,2125,2129,1,2107,2106,2131,1,2051,2062,2072,1,1992,2011,2009,1,2424,2441,2442,1,4036,4036,4036,1
0.475,2072,2078,2082,1,2084,2101,2098,1,2107,2125,2130,1,2106,2106,2131,1,2049,2061,2074,1,1989,2009,2011,1,2422,2438,2442,1,4036,4036,4036,1
0.476,2073,2078,2083,1,2084,2101,2098,1,2108,2124,2130,1,2107,2106,2132,1,2051,2057,2073,1,1991,2010,2010,1,2423,2439,2444,1,4036,4036,4036,1
0.477,2075,2079,2083,1,2085,2102,2099,1,2109,2125,2130,1,2108,2106,2132,1,2052,2062,2075,1,1992,2010,2011,1,2424,2439,2444,1,4036,4036,4036,1
0.477,2074,2079,2083,1,2085,2103,2099,1,2109,2126,2130,1,2108,2107,2132,1,2052,2062,2075,1,1992,2011,2011,1,2424,2440,2444,1,4036,4036,4036,1
0.478,2074,2079,2083,1,2085,2103,2099,1,2109,2126,2130,1,2108,2107,2132,1,2052,2062,2075,1,1992,2011,2011,1,2423,2440,2445,1,4036,4036,4036,1
0.479,2074,2078,2083,1,2085,2102,2099,1,2109,2125,2130,1,2108,2106,2132,1,2052,2061,2075,1,1992,2010,2011,1,2423,2439,2443,1,4036,4036,4036,1
0.48,2074,2077,2083,1,2084,2101,2099,1,2108,2124,2130,1,2108,2106,2132,1,2051,2058,2073,1,1992,2007,2009,1,2422,2435,2445,1,4036,4036,4036,1
0.481,2074,2078,2083,1,2084,2101,2098,1,2108,2125,2129,1,2108,2106,2131,1,2052,2062,2073,1,1994,2011,2009,1,2425,2440,2443,1,4036,4036,4036,1
0.482,2072,2077,2082,1,2083,2100,2098,1,2106,2123,2129,1,2106,2105,2130,1,2049,2057,2074,1,1989,2004,2010,1,2421,2434,2442,1,4036,4036,4036,1
0.483,2072,2076,2082,1,2083,2100,2098,1,2106,2122,2128,1,2106,2104,2130,1,2050,2057,2072,1,1990,2005,2008,1,2422,2434,2442,1,4036,4036,4036,1
0.484,2072,2076,2081,1,2083,2100,2097,1,2106,2122,2128,1,2106,2104,2130,1,2049,2057,2071,1,1989,2005,2007,1,2420,2434,2442,1,4036,4036,4036,1
0.485,2072,2076,2081,1,2083,2100,2097,1,2106,2123,2128,1,2106,2104,2130,1,2049,2058,2071,1,1989,2006,2007,1,2420,2435,2441,1,4036,4036,4036,1
0.486,2072,2076,2081,1,2083,2100,2097,1,2107,2123,2128,1,2106,2104,2130,1,2048,2057,2071,1,1989,2005,2007,1,2421,2433,2441,1,4036,4036,4036,1
0.487,2072,2077,2081,1,2083,2100,2097,1,2107,2124,2128,1,2107,2104,2130,1,2050,2061,2071,1,1991,2010,2007,1,2423,2438,2440,1,4036,4036,4036,1
0.488,2071,2076,2081,1,2083,2100,2097,1,2106,2123,2128,1,2106,2104,2130,1,2047,2058,2073,1,1987,2005,2009,1,2420,2434,2440,1,4036,4036,4036,1
0.489,2072,2076,2082,1,2083,2100,2097,1,2106,2123,2128,1,2106,2104,2131,1,2048,2055,2072,1,1989,2007,2008,1,2421,2436,2442,1,4036,4036,4036,1
0.491,2074,2077,2082,1,2084,2101,2098,1,2108,2125,2129,1,2107,2105,2131,1,2050,2060,2074,1,1991,2007,2009,1,2423,2436,2442,1,4036,4036,4036,1
0.491,2073,2078,2082,1,2084,2102,2098,1,2108,2126,2129,1,2107,2106,2131,1,2050,2062,2074,1,1991,2010,2009,1,2423,2439,2442,1,4036,4036,4036,1
0.492,2073,2078,2083,1,2084,2102,2099,1,2108,2126,2129,1,2108,2106,2133,1,2050,2062,2075,1,1991,2010,2010,1,2423,2439,2444,1,4036,4036,4036,1
0.493,2073,2078,2083,1,2084,2102,2099,1,2108,2126,2129,1,2108,2106,2133,1,2050,2062,2075,1,1991,2011,2011,1,2423,2440,2443,1,4036,4036,4036,1
0.494,2073,2078,2083,1,2084,2102,2099,1,2108,2126,2129,1,2108,2106,2134,1,2051,2060,2073,1,1991,2008,2010,1,2423,2437,2445,1,4036,4036,4036,1
0.495,2073,2079,2083,1,2084,2103,2099,1,2109,2127,2129,1,2109,2106,2133,1,2053,2064,2074,1,1994,2013,2011,1,2426,2442,2444,1,4036,4036,4036,1
0.496,2072,2078,2083,1,2084,2102,2099,1,2108,2125,2129,1,2108,2106,2132,1,2050,2059,2075,1,1990,2007,2012,1,2423,2436,2444,1,4036,4036,4036,1
0.497,2072,2076,2083,1,2084,2100,2099,1,2108,2124,2129,1,2108,2105,2132,1,2051,2059,2073,1,1991,2007,2011,1,2424,2436,2444,1,4036,4036,4036,1
0.498,2072,2077,2083,1,2083,2100,2098,1,2107,2124,2129,1,2107,2105,2131,1,2050,2059,2072,1,1990,2007,2009,1,2422,2436,2443,1,4036,4036,4036,1
0.499,2072,2077,2083,1,2083,2100,2098,1,2107,2123,2129,1,2107,2105,2131,1,2050,2059,2072,1,1990,2006,2009,1,2422,2436,2441,1,4036,4036,4036,1
0.501,2072,2077,2083,1,2083,2100,2098,1,2106,2123,2129,1,2107,2105,2131,1,2049,2057,2072,1,1989,2005,2009,1,2421,2434,2441,1,4036,4036,4036,1
0.501,2072,2077,2082,1,2083,2101,2098,1,2106,2124,2129,1,2107,2105,2131,1,2050,2061,2072,1,1991,2010,2009,1,2423,2439,2440,1,4036,4036,4036,1
0.502,2071,2076,2082,1,2083,2100,2098,1,2105,2123,2129,1,2106,2105,2130,1,2047,2057,2073,1,1987,2005,2010,1,2420,2434,2439,1,4036,4036,4036,1
0.503,2071,2076,2082,1,2083,2099,2098,1,2105,2122,2129,1,2106,2105,2131,1,2048,2054,2071,1,1988,2006,2008,1,2420,2435,2441,1,4036,4036,4036,1
0.504,2072,2077,2082,1,2083,2100,2098,1,2106,2123,2129,1,2107,2105,2130,1,2049,2059,2072,1,1989,2006,2008,1,2421,2435,2441,1,4036,4036,4036,1
0.505,2072,2078,2082,1,2083,2101,2098,1,2106,2125,2129,1,2107,2105,2130,1,2049,2060,2072,1,1989,2008,2008,1,2421,2437,2441,1,4036,4036,4036,1
0.506,2072,2078,2082,1,2083,2101,2098,1,2107,2125,2129,1,2107,2105,2131,1,2050,2060,2073,1,1990,2008,2009,1,2421,2437,2443,1,4036,4036,4036,1
0.507,2072,2078,2082,1,2083,2101,2099,1,2107,2125,2130,1,2107,2106,2131,1,2050,2061,2074,1,1990,2009,2010,1,2421,2438,2442,1,4036,4036,4036,1
0.508,2073,2078,2083,1,2084,2101,2099,1,2108,2125,2130,1,2107,2106,2132,1,2051,2059,2073,1,1991,2007,2010,1,2422,2435,2445,1,4036,4036,4036,1
0.509,2074,2079,2083,1,2085,2102,2099,1,2109,2126,2130,1,2109,2107,2132,1,2054,2064,2074,1,1995,2013,2011,1,2426,2441,2444,1,4036,4036,4036,1
0.51,2073,2079,2083,1,2085,2102,2100,1,2108,2126,2130,1,2108,2107,2131,1,2052,2063,2076,1,1991,2011,2011,1,2423,2439,2445,1,4036,4036,4036,1
0.511,2074,2078,2083,1,2085,2102,2100,1,2109,2125,2130,1,2108,2107,2132,1,2053,2062,2074,1,1993,2010,2011,1,2425,2438,2445,1,4036,4036,4036,1
0.512,2074,2078,2083,1,2085,2102,2100,1,2108,2125,2130,1,2108,2107,2132,1,2052,2062,2073,1,1992,2010,2011,1,2423,2438,2445,1,4036,4036,4036,1
0.513,2074,2077,2082,1,2085,2101,2099,1,2108,2125,2130,1,2108,2106,2132,1,2052,2061,2073,1,1992,2009,2010,1,2423,2437,2443,1,4036,4036,4036,1
0.514,2073,2077,2082,1,2084,2101,2099,1,2107,2124,2130,1,2107,2106,2132,1,2051,2059,2073,1,1990,2007,2010,1,2422,2434,2443,1,4036,4036,4036,1
0.515,2073,2077,2082,1,2084,2101,2099,1,2107,2125,2130,1,2107,2106,2131,1,2051,2062,2073,1,1992,2011,2010,1,2423,2439,2442,1,4036,4036,4036,1
0.516,2072,2076,2082,1,2083,2100,2099,1,2105,2124,2129,1,2105,2105,2130,1,2048,2059,2074,1,1988,2007,2010,1,2420,2436,2441,1,4036,4036,4036,1
0.517,2072,2075,2082,1,2083,2099,2098,1,2105,2123,2129,1,2105,2105,2131,1,2049,2055,2072,1,1989,2006,2009,1,2421,2436,2442,1,4036,4036,4036,1
0.518,2072,2076,2082,1,2083,2100,2098,1,2106,2124,2129,1,2106,2105,2130,1,2049,2059,2073,1,1989,2006,2009,1,2421,2436,2441,1,4036,4036,4036,1
0.519,2072,2077,2082,1,2083,2100,2098,1,2106,2124,2129,1,2106,2105,2130,1,2049,2059,2073,1,1989,2008,2009,1,2421,2436,2441,1,4036,4036,4036,1
0.52,2072,2077,2082,1,2083,2100,2098,1,2106,2124,2129,1,2106,2105,2130,1,2049,2059,2072,1,1989,2008,2008,1,2421,2436,2442,1,4036,4036,4036,1
0.521,2072,2077,2082,1,2083,2100,2098,1,2106,2123,2129,1,2106,2105,2130,1,2049,2059,2072,1,1989,2007,2008,1,2421,2435,2441,1,4036,4036,4036,1
0.522,2072,2077,2082,1,2083,2100,2098,1,2107,2123,2129,1,2106,2105,2131,1,2050,2057,2071,1,1991,2005,2007,1,2422,2433,2443,1,4036,4036,4036,1
0.523,2073,2078,2082,1,2084,2101,2098,1,2108,2125,2129,1,2107,2105,2131,1,2053,2062,2072,1,1994,2011,2009,1,2425,2439,2442,1,4036,4036,4036,1
0.524,2072,2078,2082,1,2084,2101,2099,1,2108,2125,2130,1,2106,2105,2131,1,2050,2061,2074,1,1990,2010,2010,1,2422,2437,2444,1,4036,4036,4036,1
0.525,2073,2077,2083,1,2085,2102,2099,1,2109,2126,2130,1,2107,2106,2132,1,2052,2061,2073,1,1993,2011,2010,1,2424,2438,2444,1,4036,4036,4036,1
0.526,2073,2078,2084,1,2085,2102,2100,1,2109,2126,2130,1,2107,2106,2133,1,2052,2061,2074,1,1992,2011,2011,1,2423,2438,2445,1,4036,4036,4036,1
0.527,2073,2079,2084,1,2085,2103,2100,1,2109,2126,2130,1,2107,2106,2133,1,2052,2062,2074,1,1992,2011,2011,1,2423,2438,2444,1,4036,4036,4036,1
0.528,2074,2079,2084,1,2085,2103,2100,1,2109,2126,2130,1,2108,2106,2133,1,2052,2060,2074,1,1992,2009,2011,1,2424,2436,2444,1,4036,4036,4036,1
0.529,2074,2080,2084,1,2085,2103,2100,1,2109,2127,2130,1,2108,2106,2133,1,2053,2064,2074,1,1994,2014,2011,1,2425,2441,2443,1,4036,4036,4036,1
0.53,2073,2079,2083,1,2084,2102,2100,1,2107,2126,2130,1,2107,2106,2131,1,2050,2060,2075,1,1990,2008,2011,1,2422,2436,2442,1,4036,4036,4036,1
0.531,2073,2077,2083,1,2084,2101,2099,1,2107,2124,2130,1,2107,2105,2132,1,2050,2060,2073,1,1991,2007,2009,1,2422,2436,2443,1,4036,4036,4036,1
0.532,2073,2077,2083,1,2084,2101,2099,1,2107,2125,2130,1,2106,2105,2131,1,2049,2060,2073,1,1990,2007,2009,1,2421,2436,2442,1,4036,4036,4036,1
0.533,2073,2077,2083,1,2084,2100,2099,1,2107,2125,2130,1,2106,2105,2131,1,2049,2060,2073,1,1990,2007,2009,1,2421,2436,2442,1,4036,4036,4036,1
0.534,2072,2077,2082,1,2084,2100,2098,1,2107,2125,2129,1,2106,2105,2130,1,2049,2060,2072,1,1990,2007,2008,1,2421,2436,2442,1,4036,4036,4036,1
0.535,2072,2077,2082,1,2084,2100,2098,1,2107,2124,2129,1,2106,2104,2130,1,2049,2060,2072,1,1990,2007,2008,1,2421,2436,2441,1,4036,4036,4036,1
0.536,2072,2077,2082,1,2084,2100,2098,1,2107,2123,2129,1,2106,2104,2131,1,2050,2057,2070,1,1991,2004,2007,1,2422,2433,2442,1,4036,4036,4036,1
0.537,2073,2078,2082,1,2084,2101,2098,1,2108,2124,2129,1,2107,2104,2131,1,2052,2061,2072,1,1994,2009,2008,1,2425,2438,2441,1,4036,4036,4036,1
0.538,2072,2077,2082,1,2083,2101,2098,1,2106,2124,2129,1,2106,2104,2130,1,2049,2059,2074,1,1989,2007,2009,1,2421,2435,2443,1,4036,4036,4036,1
0.539,2073,2076,2082,1,2083,2101,2098,1,2107,2125,2129,1,2107,2105,2131,1,2051,2060,2073,1,1991,2008,2009,1,2423,2437,2443,1,4036,4036,4036,1
0.54,2073,2077,2083,1,2084,2101,2099,1,2107,2125,2129,1,2107,2105,2132,1,2051,2060,2073,1,1991,2008,2010,1,2422,2437,2444,1,4036,4036,4036,1
0.541,2073,2078,2083,1,2084,2102,2099,1,2107,2126,2130,1,2107,2106,2132,1,2051,2062,2074,1,1991,2010,2011,1,2422,2439,2443,1,4036,4036,4036,1
0.542,2074,2078,2083,1,2085,2102,2099,1,2108,2126,2130,1,2109,2106,2132,1,2052,2061,2074,1,1992,2009,2011,1,2424,2437,2443,1,4036,4036,4036,1
0.543,2075,2079,2083,1,2085,2103,2100,1,2109,2127,2130,1,2109,2107,2132,1,2053,2065,2075,1,1995,2014,2012,1,2426,2442,2443,1,4036,4036,4036,1
0.544,2074,2078,2083,1,2085,2102,2100,1,2108,2126,2130,1,2108,2107,2131,1,2051,2061,2076,1,1991,2009,2013,1,2423,2437,2443,1,4036,4036,4036,1
0.545,2074,2077,2083,1,2085,2101,2100,1,2108,2124,2130,1,2108,2107,2132,1,2051,2061,2074,1,1992,2009,2012,1,2423,2437,2445,1,4036,4036,4036,1
0.546,2074,2078,2083,1,2085,2101,2099,1,2108,2126,2130,1,2108,2107,2132,1,2051,2061,2073,1,1992,2009,2010,1,2423,2437,2445,1,4036,4036,4036,1
0.547,2073,2078,2083,1,2084,2101,2099,1,2107,2126,2130,1,2106,2106,2132,1,2049,2061,2073,1,1990,2009,2010,1,2422,2436,2445,1,4036,4036,4036,1
0.548,2073,2078,2082,1,2084,2101,2098,1,2107,2126,2129,1,2106,2106,2131,1,2049,2061,2072,1,1990,2009,2009,1,2421,2436,2443,1,4036,4036,4036,1
0.549,2073,2076,2082,1,2084,2100,2098,1,2107,2124,2128,1,2106,2105,2131,1,2049,2060,2072,1,1990,2008,2009,1,2421,2435,2442,1,4036,4036,4036,1
0.55,2073,2076,2082,1,2084,2100,2098,1,2107,2123,2128,1,2106,2105,2131,1,2049,2057,2070,1,1990,2005,2008,1,2421,2432,2443,1,4036,4036,4036,1
0.551,2073,2077,2082,1,2084,2101,2098,1,2107,2124,2128,1,2107,2105,2130,1,2051,2061,2072,1,1993,2010,2008,1,2424,2438,2441,1,4036,4036,4036,1
0.552,2072,2077,2082,1,2083,2101,2098,1,2106,2124,2128,1,2106,2105,2129,1,2048,2059,2074,1,1988,2008,2008,1,2421,2435,2441,1,4036,4036,4036,1
0.553,2072,2076,2082,1,2083,2100,2098,1,2106,2123,2128,1,2106,2105,2130,1,2050,2059,2072,1,1990,2007,2008,1,2422,2435,2441,1,4036,4036,4036,1
0.554,2072,2077,2082,1,2083,2100,2098,1,2106,2123,2128,1,2106,2105,2131,1,2050,2059,2072,1,1989,2007,2008,1,2421,2435,2441,1,4036,4036,4036,1
0.555,2072,2077,2082,1,2083,2100,2098,1,2106,2124,2128,1,2106,2105,2131,1,2050,2059,2072,1,1989,2008,2009,1,2421,2436,2440,1,4036,4036,4036,1
0.556,2073,2077,2082,1,2084,2100,2098,1,2107,2124,2128,1,2107,2105,2131,1,2050,2058,2072,1,1990,2007,2009,1,2422,2434,2440,1,4036,4036,4036,1
0.557,2074,2078,2083,1,2085,2101,2098,1,2108,2126,2129,1,2108,2106,2131,1,2052,2063,2073,1,1993,2013,2010,1,2425,2440,2440,1,4036,4036,4036,1
0.558,2073,2078,2083,1,2085,2101,2099,1,2107,2126,2130,1,2107,2106,2131,1,2050,2059,2075,1,1990,2009,2012,1,2422,2436,2440,1,4036,4036,4036,1
0.559,2074,2078,2083,1,2085,2101,2099,1,2108,2125,2131,1,2108,2106,2133,1,2051,2061,2074,1,1992,2011,2011,1,2423,2438,2443,1,4036,4036,4036,1
0.56,2074,2079,2084,1,2085,2102,2099,1,2108,2126,2131,1,2108,2106,2134,1,2051,2061,2074,1,1992,2011,2011,1,2423,2438,2445,1,4036,4036,4036,1
0.561,2074,2079,2084,1,2085,2103,2099,1,2108,2127,2131,1,2108,2106,2134,1,2052,2062,2074,1,1992,2011,2011,1,2423,2438,2445,1,4036,4036,4036,1
0.562,2074,2079,2084,1,2085,2103,2099,1,2108,2127,2131,1,2108,2106,2134,1,2052,2062,2074,1,1992,2011,2011,1,2423,2438,2445,1,4036,4036,4036,1
0.563,2074,2078,2084,1,2085,2102,2099,1,2108,2126,2131,1,2108,2106,2133,1,2052,2061,2074,1,1992,2010,2011,1,2423,2437,2443,1,4036,4036,4036,1
0.564,2074,2077,2084,1,2085,2101,2099,1,2108,2125,2131,1,2108,2106,2133,1,2052,2058,2072,1,1993,2007,2010,1,2424,2433,2444,1,4036,4036,4036,1
0.565,2074,2078,2083,1,2085,2101,2099,1,2108,2126,2131,1,2108,2106,2132,1,2053,2062,2073,1,1995,2011,2010,1,2426,2438,2442,1,4036,4036,4036,1
0.566,2072,2077,2082,1,2084,2101,2099,1,2107,2125,2130,1,2106,2106,2130,1,2050,2060,2074,1,1990,2009,2009,1,2422,2435,2442,1,4036,4036,4036,1
0.567,2072,2076,2082,1,2084,2100,2098,1,2107,2124,2130,1,2106,2105,2130,1,2051,2060,2072,1,1992,2008,2009,1,2423,2434,2442,1,4036,4036,4036,1
0.568,2072,2076,2082,1,2084,2100,2098,1,2107,2124,2129,1,2106,2105,2130,1,2050,2060,2071,1,1991,2008,2008,1,2421,2434,2442,1,4036,4036,4036,1
0.569,2072,2077,2082,1,2084,2100,2098,1,2107,2124,2129,1,2106,2105,2130,1,2050,2060,2071,1,1991,2007,2008,1,2421,2435,2441,1,4036,4036,4036,1
0.57,2072,2077,2082,1,2084,2100,2098,1,2106,2124,2129,1,2107,2105,2130,1,2049,2058,2071,1,1989,2006,2008,1,2416,2433,2441,1,4036,4036,4036,1
0.571,2072,2078,2082,1,2084,2101,2098,1,2107,2125,2129,1,2107,2105,2130,1,2051,2062,2072,1,1992,2011,2008,1,2419,2438,2440,1,4036,4036,4036,1
0.572,2071,2077,2082,1,2083,2101,2098,1,2106,2124,2129,1,2106,2105,2130,1,2048,2058,2074,1,1988,2007,2010,1,2417,2434,2440,1,4036,4036,4036,1
0.573,2072,2077,2082,1,2084,2101,2098,1,2107,2123,2129,1,2107,2105,2131,1,2049,2060,2073,1,1990,2009,2010,1,2419,2436,2442,1,4036,4036,4036,1
0.574,2074,2078,2082,1,2085,2102,2099,1,2109,2125,2130,1,2109,2106,2131,1,2051,2060,2075,1,1992,2009,2011,1,2422,2436,2442,1,4036,4036,4036,1
0.575,2074,2079,2082,1,2085,2103,2099,1,2109,2127,2130,1,2109,2107,2131,1,2051,2062,2075,1,1992,2011,2011,1,2422,2438,2442,1,4036,4036,4036,1
0.576,2074,2079,2084,1,2085,2103,2100,1,2109,2127,2131,1,2109,2107,2132,1,2051,2062,2075,1,1992,2011,2012,1,2422,2438,2444,1,4036,4036,4036,1
0.577,2074,2079,2084,1,2085,2103,2100,1,2109,2127,2131,1,2109,2107,2132,1,2051,2063,2076,1,1992,2011,2012,1,2422,2438,2443,1,4036,4036,4036,1
0.578,2074,2078,2084,1,2085,2102,2100,1,2109,2126,2131,1,2109,2107,2133,1,2051,2060,2075,1,1993,2008,2011,1,2422,2435,2445,1,4036,4036,4036,1
0.579,2074,2079,2084,1,2085,2102,2100,1,2109,2127,2131,1,2109,2107,2132,1,2053,2064,2075,1,1996,2013,2011,1,2425,2440,2444,1,4036,4036,4036,1
0.58,2073,2078,2083,1,2085,2102,2100,1,2108,2126,2130,1,2108,2107,2130,1,2050,2062,2076,1,1991,2011,2010,1,2422,2437,2442,1,4036,4036,4036,1
0.581,2073,2076,2083,1,2085,2100,2099,1,2108,2124,2130,1,2108,2106,2131,1,2051,2060,2074,1,1992,2008,2010,1,2423,2436,2442,1,4036,4036,4036,1
0.582,2073,2076,2082,1,2084,2100,2099,1,2107,2124,2129,1,2107,2106,2131,1,2050,2060,2073,1,1990,2008,2009,1,2421,2436,2442,1,4036,4036,4036,1
0.583,2073,2076,2082,1,2084,2100,2099,1,2107,2123,2129,1,2107,2105,2130,1,2050,2060,2073,1,1990,2007,2009,1,2421,2435,2440,1,4036,4036,4036,1
0.584,2073,2076,2082,1,2083,2100,2099,1,2106,2123,2129,1,2106,2105,2130,1,2049,2058,2073,1,1989,2005,2009,1,2416,2433,2440,1,4036,4036,4036,1
0.585,2073,2077,2082,1,2083,2100,2099,1,2106,2124,2129,1,2106,2105,2130,1,2050,2061,2073,1,1991,2010,2009,1,2419,2438,2440,1,4036,4036,4036,1
0.586,2071,2077,2082,1,2083,2100,2099,1,2105,2123,2129,1,2105,2105,2129,1,2047,2059,2074,1,1987,2007,2010,1,2417,2435,2439,1,4036,4036,4036,1
0.587,2071,2076,2082,1,2083,2099,2098,1,2105,2122,2129,1,2105,2105,2130,1,2048,2059,2072,1,1989,2008,2009,1,2418,2435,2441,1,4036,4036,4036,1
0.588,2071,2077,2082,1,2083,2100,2098,1,2105,2123,2129,1,2105,2105,2131,1,2048,2059,2072,1,1989,2008,2008,1,2418,2435,2442,1,4036,4036,4036,1
0.589,2072,2077,2082,1,2083,2100,2098,1,2106,2124,2129,1,2106,2105,2131,1,2048,2060,2072,1,1988,2009,2008,1,2419,2435,2442,1,4036,4036,4036,1
0.59,2072,2077,2082,1,2083,2100,2099,1,2107,2124,2129,1,2106,2105,2131,1,2049,2060,2073,1,1989,2009,2010,1,2420,2435,2443,1,4036,4036,4036,1
0.591,2072,2078,2083,1,2083,2101,2099,1,2107,2125,2130,1,2106,2106,2131,1,2049,2061,2074,1,1989,2010,2011,1,2420,2437,2443,1,4036,4036,4036,1
0.592,2073,2078,2084,1,2084,2101,2099,1,2108,2125,2130,1,2107,2106,2132,1,2051,2059,2073,1,1992,2008,2010,1,2422,2435,2445,1,4036,4036,4036,1
0.593,2074,2079,2084,1,2085,2102,2100,1,2109,2127,2130,1,2108,2107,2132,1,2054,2064,2075,1,1996,2014,2012,1,2425,2441,2444,1,4036,4036,4036,1
0.594,2074,2079,2084,1,2085,2102,2100,1,2109,2126,2130,1,2108,2107,2131,1,2052,2061,2077,1,1992,2010,2012,1,2422,2437,2444,1,4036,4036,4036,1
0.595,2075,2078,2084,1,2085,2102,2100,1,2109,2125,2131,1,2109,2107,2132,1,2053,2061,2075,1,1994,2010,2012,1,2424,2437,2444,1,4036,4036,4036,1
0.596,2074,2079,2084,1,2085,2102,2100,1,2108,2125,2131,1,2108,2107,2132,1,2052,2061,2074,1,1992,2010,2012,1,2422,2437,2444,1,4036,4036,4036,1
0.597,2074,2078,2084,1,2085,2101,2099,1,2108,2125,2130,1,2108,2106,2132,1,2052,2061,2074,1,1992,2010,2011,1,2422,2436,2442,1,4036,4036,4036,1
0.598,2073,2078,2084,1,2084,2101,2099,1,2107,2124,2130,1,2107,2106,2132,1,2050,2059,2074,1,1990,2007,2011,1,2421,2434,2442,1,4036,4036,4036,1
0.599,2073,2078,2083,1,2084,2101,2099,1,2107,2125,2130,1,2107,2106,2131,1,2051,2062,2074,1,1992,2012,2010,1,2422,2439,2441,1,4036,4036,4036,1
0.6,2072,2077,2082,1,2083,2100,2099,1,2106,2124,2129,1,2106,2106,2130,1,2048,2059,2075,1,1988,2009,2010,1,2419,2435,2440,1,4036,4036,4036,1
0.601,2072,2076,2082,1,2083,2099,2098,1,2106,2122,2129,1,2106,2105,2131,1,2049,2055,2073,1,1989,2008,2009,1,2419,2435,2441,1,4036,4036,4036,1
0.602,2072,2076,2082,1,2083,2100,2098,1,2106,2123,2129,1,2106,2105,2130,1,2049,2059,2073,1,1989,2008,2009,1,2420,2435,2440,1,4036,4036,4036,1
0.603,2072,2077,2082,1,2083,2100,2098,1,2106,2123,2129,1,2106,2105,2130,1,2049,2059,2073,1,1989,2008,2009,1,2420,2435,2440,1,4036,4036,4036,1
0.604,2072,2077,2082,1,2083,2100,2098,1,2106,2123,2129,1,2106,2105,2130,1,2049,2059,2072,1,1989,2008,2009,1,2420,2435,2441,1,4036,4036,4036,1
0.605,2072,2077,2082,1,2083,2100,2098,1,2106,2123,2129,1,2106,2105,2130,1,2049,2059,2073,1,1989,2007,2009,1,2420,2435,2440,1,4036,4036,4036,1
0.606,2073,2077,2082,1,2083,2100,2098,1,2107,2123,2129,1,2107,2105,2131,1,2050,2057,2072,1,1991,2005,2008,1,2422,2433,2442,1,4036,4036,4036,1
0.607,2074,2078,2083,1,2084,2101,2099,1,2108,2125,2130,1,2108,2106,2131,1,2053,2062,2074,1,1995,2011,2010,1,2425,2439,2442,1,4036,4036,4036,1
0.608,2073,2078,2083,1,2084,2101,2100,1,2108,2125,2130,1,2107,2106,2131,1,2051,2061,2076,1,1991,2010,2011,1,2422,2437,2444,1,4036,4036,4036,1
0.609,2074,2077,2083,1,2085,2101,2100,1,2109,2126,2130,1,2108,2107,2132,1,2053,2062,2075,1,1994,2011,2011,1,2424,2437,2444,1,4036,4036,4036,1
0.61,2074,2078,2084,1,2085,2101,2100,1,2109,2126,2130,1,2108,2107,2133,1,2052,2062,2075,1,1993,2011,2012,1,2423,2437,2445,1,4036,4036,4036,1
0.611,2074,2078,2084,1,2085,2102,2100,1,2109,2126,2130,1,2108,2107,2133,1,2052,2062,2075,1,1993,2011,2012,1,2423,2438,2444,1,4036,4036,4036,1
0.612,2074,2078,2084,1,2085,2102,2100,1,2109,2126,2130,1,2108,2107,2133,1,2052,2061,2075,1,1993,2009,2012,1,2423,2435,2444,1,4036,4036,4036,1
0.613,2074,2079,2084,1,2085,2103,2100,1,2109,2127,2130,1,2108,2107,2133,1,2053,2065,2075,1,1994,2014,2012,1,2424,2440,2442,1,4036,4036,4036,1
0.614,2072,2078,2083,1,2084,2102,2099,1,2107,2125,2130,1,2107,2106,2131,1,2050,2060,2075,1,1990,2008,2012,1,2421,2435,2441,1,4036,4036,4036,1
0.615,2072,2077,2083,1,2084,2101,2098,1,2107,2123,2130,1,2107,2106,2132,1,2050,2060,2073,1,1990,2007,2010,1,2421,2435,2442,1,4036,4036,4036,1
0.616,2073,2077,2083,1,2083,2101,2098,1,2106,2124,2130,1,2107,2106,2131,1,2049,2060,2074,1,1989,2007,2010,1,2421,2435,2441,1,4036,4036,4036,1
0.617,2073,2077,2083,1,2083,2101,2098,1,2106,2124,2130,1,2107,2106,2131,1,2049,2060,2074,1,1989,2008,2010,1,2421,2436,2441,1,4036,4036,4036,1
0.617,2073,2077,2082,1,2083,2101,2098,1,2106,2124,2129,1,2107,2106,2131,1,2049,2060,2073,1,1989,2008,2009,1,2420,2436,2441,1,4036,4036,4036,1
0.618,2073,2077,2082,1,2083,2100,2098,1,2106,2123,2129,1,2107,2105,2131,1,2049,2060,2073,1,1989,2007,2009,1,2420,2435,2440,1,4036,4036,4036,1
0.62,2073,2077,2082,1,2083,2100,2098,1,2106,2123,2129,1,2107,2105,2132,1,2049,2057,2071,1,1989,2004,2008,1,2420,2432,2442,1,4036,4036,4036,1
0.621,2073,2077,2082,1,2083,2101,2098,1,2107,2124,2129,1,2108,2105,2131,1,2051,2061,2071,1,1992,2009,2008,1,2423,2437,2440,1,4036,4036,4036,1
0.622,2072,2077,2082,1,2083,2101,2098,1,2106,2124,2129,1,2107,2105,2130,1,2048,2060,2073,1,1988,2008,2009,1,2420,2435,2441,1,4036,4036,4036,1
0.623,2073,2076,2082,1,2083,2101,2098,1,2107,2125,2129,1,2107,2106,2131,1,2050,2060,2072,1,1991,2009,2009,1,2422,2436,2441,1,4036,4035,4036,1
0.624,2073,2077,2083,1,2084,2101,2099,1,2107,2125,2129,1,2107,2106,2132,1,2050,2060,2073,1,1991,2009,2010,1,2422,2436,2443,1,4036,4035,4036,1
0.625,2073,2078,2083,1,2084,2102,2099,1,2107,2126,2130,1,2107,2106,2132,1,2050,2062,2074,1,1991,2011,2011,1,2422,2438,2443,1,4036,4035,4036,1
0.626,2074,2078,2083,1,2085,2102,2099,1,2109,2126,2130,1,2109,2106,2132,1,2052,2061,2074,1,1992,2010,2011,1,2423,2436,2443,1,4036,4035,4036,1
0.627,2075,2079,2083,1,2085,2103,2100,1,2109,2127,2130,1,2109,2107,2132,1,2054,2065,2075,1,1995,2015,2012,1,2425,2441,2443,1,4036,4035,4036,1
0.628,2074,2079,2083,1,2085,2103,2100,1,2108,2127,2130,1,2108,2107,2132,1,2052,2062,2076,1,1991,2012,2013,1,2422,2438,2442,1,4036,4035,4036,1
0.629,2074,2078,2083,1,2085,2102,2100,1,2108,2125,2130,1,2108,2106,2133,1,2052,2062,2074,1,1992,2011,2012,1,2423,2438,2443,1,4036,4035,4036,1
0.629,2074,2079,2083,1,2085,2102,2099,1,2108,2126,2130,1,2108,2106,2132,1,2052,2062,2073,1,1992,2011,2010,1,2423,2438,2443,1,4036,4035,4036,1
0.63,2073,2078,2083,1,2084,2102,2099,1,2107,2126,2130,1,2106,2106,2132,1,2050,2062,2073,1,1990,2011,2010,1,2421,2437,2443,1,4036,4035,4036,1
0.631,2073,2078,2082,1,2084,2102,2098,1,2107,2126,2130,1,2106,2106,2131,1,2050,2062,2072,1,1990,2011,2009,1,2420,2437,2442,1,4036,4035,4036,1
0.633,2073,2077,2082,1,2084,2100,2098,1,2107,2124,2130,1,2106,2105,2131,1,2050,2060,2072,1,1990,2009,2009,1,2420,2436,2441,1,4036,4035,4036,1
0.633,2073,2077,2082,1,2084,2100,2098,1,2107,2123,2130,1,2106,2105,2131,1,2050,2057,2070,1,1990,2006,2008,1,2420,2433,2442,1,4036,4036,4036,1
0.635,2073,2077,2082,1,2084,2101,2098,1,2108,2124,2130,1,2107,2105,2131,1,2052,2061,2071,1,1993,2010,2009,1,2423,2438,2441,1,4036,4036,4036,1
0.636,2072,2077,2082,1,2083,2101,2098,1,2106,2124,2130,1,2106,2105,2130,1,2049,2059,2073,1,1989,2008,2009,1,2420,2435,2441,1,4036,4036,4036,1
0.637,2072,2076,2082,1,2083,2100,2098,1,2106,2123,2130,1,2107,2105,2131,1,2050,2059,2072,1,1991,2007,2009,1,2422,2435,2441,1,4036,4036,4036,1
0.638,2072,2076,2082,1,2083,2100,2098,1,2106,2123,2130,1,2107,2105,2131,1,2050,2059,2072,1,1990,2007,2009,1,2420,2435,2441,1,4036,4036,4036,1
0.639,2072,2077,2082,1,2083,2101,2098,1,2106,2124,2130,1,2107,2106,2131,1,2050,2059,2073,1,1990,2008,2009,1,2420,2436,2440,1,4036,4036,4036,1
0.64,2073,2077,2082,1,2084,2101,2098,1,2108,2124,2130,1,2108,2106,2131,1,2051,2058,2073,1,1990,2007,2009,1,2418,2434,2440,1,4036,4036,4036,1
0.641,2074,2078,2083,1,2085,2102,2098,1,2109,2126,2130,1,2109,2107,2131,1,2053,2063,2074,1,1993,2013,2010,1,2422,2440,2440,1,4036,4036,4036,1
0.642,2073,2078,2083,1,2085,2102,2099,1,2108,2126,2130,1,2108,2107,2131,1,2051,2059,2076,1,1990,2008,2012,1,2420,2435,2440,1,4036,4036,4036,1
0.643,2074,2077,2083,1,2085,2102,2099,1,2109,2126,2130,1,2108,2107,2133,1,2052,2061,2075,1,1992,2010,2012,1,2422,2437,2443,1,4036,4036,4036,1
0.643,2074,2078,2083,1,2085,2103,2099,1,2109,2126,2130,1,2108,2107,2134,1,2052,2061,2075,1,1992,2010,2012,1,2422,2437,2444,1,4036,4036,4036,1
0.644,2074,2078,2083,1,2086,2103,2099,1,2109,2126,2130,1,2108,2107,2134,1,2052,2061,2075,1,1992,2011,2012,1,2423,2437,2444,1,4036,4036,4036,1
0.645,2074,2078,2083,1,2086,2103,2099,1,2109,2126,2130,1,2108,2107,2133,1,2052,2061,2074,1,1992,2011,2012,1,2423,2437,2444,1,4036,4036,4036,1
0.646,2074,2078,2083,1,2086,2101,2099,1,2109,2124,2130,1,2108,2106,2132,1,2052,2061,2074,1,1992,2010,2012,1,2423,2442,2442,1,4036,4036,4036,1
0.647,2074,2077,2083,1,2085,2101,2099,1,2109,2123,2130,1,2108,2106,2132,1,2051,2058,2072,1,1992,2006,2010,1,2423,2436,2443,1,4036,4036,4036,1
0.648,2074,2077,2083,1,2085,2101,2099,1,2109,2124,2130,1,2109,2106,2131,1,2053,2061,2073,1,1995,2011,2010,1,2425,2440,2441,1,4036,4036,4036,1
0.65,2072,2077,2082,1,2084,2100,2099,1,2107,2124,2129,1,2107,2106,2131,1,2050,2059,2072,1,1990,2008,2009,1,2421,2436,2441,1,4036,4036,4036,1
0.651,2071,2077,2082,1,2083,2100,2098,1,2106,2124,2129,1,2105,2106,2131,1,2048,2060,2072,1,1988,2008,2009,1,2419,2435,2441,1,4036,4036,4036,1
0.652,2071,2077,2082,1,2083,2100,2098,1,2106,2124,2129,1,2105,2106,2131,1,2048,2060,2072,1,1988,2008,2009,1,2419,2435,2441,1,4036,4036,4036,1
0.653,2071,2077,2082,1,2083,2100,2098,1,2106,2124,2129,1,2105,2105,2131,1,2048,2060,2072,1,1988,2007,2009,1,2419,2435,2440,1,4036,4036,4036,1
0.654,2071,2077,2082,1,2083,2100,2098,1,2106,2124,2129,1,2105,2105,2131,1,2048,2058,2071,1,1988,2005,2008,1,2418,2432,2442,1,4036,4036,4036,1
0.655,2072,2078,2082,1,2083,2101,2098,1,2107,2125,2129,1,2106,2105,2131,1,2051,2062,2071,1,1992,2010,2008,1,2421,2437,2441,1,4036,4036,4036,1
0.656,2071,2078,2082,1,2083,2101,2099,1,2106,2125,2129,1,2105,2105,2130,1,2049,2059,2074,1,1988,2007,2010,1,2419,2434,2443,1,4036,4036,4036,1
0.657,2072,2077,2083,1,2084,2102,2099,1,2107,2125,2129,1,2106,2106,2131,1,2051,2061,2073,1,1991,2009,2010,1,2421,2436,2443,1,4036,4036,4036,1
0.657,2072,2078,2083,1,2084,2102,2100,1,2107,2125,2130,1,2106,2106,2133,1,2051,2061,2074,1,1991,2009,2011,1,2421,2436,2445,1,4036,4036,4036,1
0.658,2074,2079,2083,1,2085,2102,2100,1,2108,2126,2130,1,2107,2107,2133,1,2052,2061,2074,1,1991,2010,2011,1,2422,2436,2445,1,4036,4036,4036,1
0.659,2074,2079,2084,1,2085,2102,2100,1,2108,2126,2130,1,2108,2107,2133,1,2052,2061,2075,1,1992,2010,2013,1,2422,2436,2445,1,4036,4036,4036,1
0.66,2074,2079,2084,1,2085,2102,2100,1,2108,2126,2130,1,2107,2107,2133,1,2050,2060,2076,1,1989,2009,2013,1,2420,2435,2444,1,4036,4036,4036,1
0.661,2074,2079,2084,1,2085,2102,2100,1,2108,2126,2130,1,2108,2107,2134,1,2051,2058,2075,1,1991,2006,2012,1,2421,2432,2445,1,4036,4036,4036,1
0.662,2075,2080,2084,1,2085,2103,2100,1,2109,2127,2130,1,2109,2107,2133,1,2053,2062,2076,1,1995,2011,2012,1,2425,2438,2443,1,4036,4036,4036,1
0.663,2073,2079,2083,1,2084,2102,2100,1,2108,2126,2130,1,2108,2107,2132,1,2050,2060,2074,1,1990,2008,2011,1,2421,2435,2442,1,4036,4036,4036,1
0.664,2072,2079,2083,1,2083,2102,2099,1,2106,2126,2130,1,2107,2107,2132,1,2049,2061,2074,1,1989,2008,2011,1,2420,2435,2442,1,4036,4036,4036,1
0.665,2072,2079,2082,1,2083,2102,2098,1,2106,2126,2129,1,2107,2107,2131,1,2049,2061,2073,1,1989,2008,2010,1,2419,2435,2442,1,4036,4036,4036,1
0.667,2072,2077,2082,1,2083,2101,2098,1,2106,2125,2129,1,2107,2106,2131,1,2049,2060,2073,1,1989,2007,2010,1,2419,2434,2440,1,4036,4036,4036,1
0.668,2072,2077,2082,1,2083,2100,2098,1,2106,2124,2129,1,2107,2106,2132,1,2049,2057,2071,1,1989,2004,2008,1,2419,2431,2441,1,4036,4036,4036,1
0.669,2073,2078,2082,1,2083,2100,2098,1,2107,2125,2129,1,2108,2106,2131,1,2051,2061,2072,1,1992,2009,2008,1,2422,2436,2440,1,4036,4036,4036,1
0.67,2072,2077,2082,1,2083,2100,2098,1,2106,2124,2129,1,2107,2106,2130,1,2048,2058,2074,1,1988,2006,2009,1,2419,2433,2440,1,4036,4036,4036,1
0.671,2072,2076,2082,1,2083,2100,2098,1,2107,2123,2129,1,2107,2106,2131,1,2049,2059,2072,1,1990,2006,2008,1,2421,2434,2440,1,4036,4036,4036,1
0.671,2072,2077,2082,1,2083,2100,2098,1,2107,2123,2129,1,2107,2106,2131,1,2049,2059,2072,1,1990,2006,2009,1,2421,2434,2441,1,4036,4036,4036,1
0.672,2072,2077,2082,1,2084,2101,2098,1,2107,2124,2129,1,2107,2106,2131,1,2050,2059,2072,1,1990,2007,2009,1,2421,2434,2441,1,4036,4036,4036,1
0.673,2073,2077,2083,1,2084,2101,2099,1,2108,2124,2130,1,2108,2106,2132,1,2051,2059,2073,1,1991,2007,2010,1,2422,2434,2443,1,4036,4036,4036,1
0.674,2072,2077,2083,1,2084,2102,2099,1,2107,2125,2131,1,2107,2106,2132,1,2050,2060,2075,1,1988,2008,2011,1,2420,2434,2443,1,4036,4036,4036,1
0.675,2073,2077,2084,1,2085,2102,2099,1,2108,2125,2131,1,2108,2106,2133,1,2053,2058,2074,1,1992,2006,2011,1,2423,2432,2445,1,4036,4036,4036,1
0.676,2075,2078,2084,1,2086,2103,2099,1,2109,2127,2131,1,2109,2107,2133,1,2056,2063,2075,1,1996,2012,2012,1,2427,2438,2444,1,4036,4036,4036,1
0.677,2074,2078,2084,1,2086,2103,2100,1,2109,2127,2131,1,2108,2107,2133,1,2053,2061,2075,1,1992,2010,2013,1,2424,2436,2444,1,4036,4036,4036,1
0.678,2073,2078,2084,1,2086,2103,2100,1,2108,2127,2131,1,2108,2107,2133,1,2052,2061,2075,1,1991,2011,2013,1,2423,2436,2444,1,4036,4036,4036,1
0.679,2073,2078,2083,1,2086,2103,2099,1,2108,2127,2131,1,2108,2107,2133,1,2052,2061,2074,1,1991,2011,2011,1,2422,2436,2443,1,4036,4036,4036,1
0.68,2073,2077,2083,1,2086,2101,2099,1,2108,2126,2130,1,2108,2106,2132,1,2052,2061,2074,1,1991,2009,2011,1,2422,2435,2441,1,4036,4036,4036,1
0.681,2073,2077,2083,1,2085,2101,2099,1,2107,2125,2130,1,2107,2106,2132,1,2051,2058,2072,1,1990,2006,2009,1,2421,2432,2442,1,4036,4036,4036,1
0.683,2073,2077,2083,1,2085,2101,2099,1,2108,2126,2130,1,2107,2106,2131,1,2052,2061,2073,1,1993,2010,2010,1,2423,2437,2441,1,4036,4036,4036,1
0.684,2072,2077,2082,1,2084,2101,2099,1,2106,2125,2130,1,2106,2106,2130,1,2049,2059,2074,1,1989,2008,2009,1,2419,2434,2441,1,4036,4036,4036,1
0.685,2072,2076,2082,1,2084,2100,2098,1,2106,2124,2129,1,2106,2105,2131,1,2050,2059,2072,1,1991,2007,2009,1,2421,2434,2441,1,4036,4036,4036,1
0.685,2072,2077,2082,1,2084,2100,2098,1,2106,2124,2129,1,2106,2105,2131,1,2050,2059,2072,1,1991,2007,2009,1,2421,2434,2441,1,4036,4036,4036,1
0.686,2072,2077,2082,1,2083,2100,2098,1,2106,2124,2129,1,2106,2105,2131,1,2049,2059,2072,1,1989,2007,2009,1,2420,2434,2441,1,4036,4036,4036,1
0.687,2072,2077,2082,1,2083,2100,2098,1,2106,2124,2129,1,2106,2105,2131,1,2049,2059,2072,1,1990,2007,2009,1,2420,2434,2441,1,4036,4036,4036,1
0.688,2071,2077,2082,1,2083,2100,2098,1,2106,2124,2129,1,2105,2105,2131,1,2047,2059,2073,1,1987,2007,2010,1,2417,2433,2440,1,4036,4036,4036,1
0.689,2072,2077,2082,1,2084,2100,2098,1,2107,2124,2129,1,2107,2105,2132,1,2050,2057,2072,1,1991,2004,2009,1,2420,2431,2442,1,4036,4036,4036,1
0.69,2074,2078,2083,1,2085,2101,2099,1,2109,2126,2130,1,2109,2106,2132,1,2053,2062,2074,1,1996,2010,2010,1,2424,2437,2442,1,4036,4036,4036,1
0.691,2073,2078,2083,1,2085,2101,2100,1,2108,2126,2131,1,2108,2106,2132,1,2051,2060,2075,1,1992,2008,2012,1,2421,2435,2443,1,4036,4036,4036,1
0.692,2074,2079,2084,1,2085,2102,2100,1,2108,2127,2131,1,2108,2106,2132,1,2052,2061,2075,1,1992,2010,2012,1,2421,2436,2443,1,4036,4036,4036,1
0.693,2074,2079,2084,1,2085,2102,2100,1,2108,2127,2131,1,2108,2106,2133,1,2052,2061,2075,1,1993,2010,2013,1,2421,2436,2445,1,4036,4036,4036,1
0.694,2074,2079,2084,1,2085,2102,2100,1,2108,2127,2131,1,2108,2107,2133,1,2052,2062,2075,1,1993,2011,2013,1,2421,2436,2444,1,4036,4036,4036,1
0.695,2074,2079,2084,1,2085,2102,2100,1,2108,2126,2131,1,2108,2107,2134,1,2052,2059,2074,1,1993,2008,2012,1,2421,2433,2445,1,4036,4036,4036,1
0.696,2074,2079,2084,1,2085,2103,2100,1,2108,2127,2131,1,2108,2107,2133,1,2053,2063,2074,1,1996,2013,2012,1,2424,2438,2443,1,4036,4036,4036,1
0.697,2073,2079,2083,1,2084,2102,2100,1,2107,2126,2131,1,2107,2106,2131,1,2050,2061,2075,1,1991,2010,2010,1,2421,2435,2441,1,4036,4036,4036,1
0.699,2073,2077,2083,1,2084,2101,2099,1,2107,2124,2130,1,2107,2106,2131,1,2051,2060,2073,1,1992,2008,2010,1,2422,2434,2441,1,4036,4036,4036,1
0.699,2073,2077,2082,1,2084,2101,2098,1,2107,2124,2130,1,2107,2106,2131,1,2051,2060,2072,1,1992,2008,2009,1,2422,2434,2441,1,4036,4036,4036,1
0.7,2072,2077,2082,1,2083,2101,2098,1,2107,2124,2130,1,2106,2106,2131,1,2050,2059,2072,1,1990,2008,2009,1,2421,2433,2441,1,4036,4036,4036,1
0.701,2072,2077,2082,1,2083,2101,2098,1,2107,2124,2130,1,2106,2106,2131,1,2050,2059,2071,1,1990,2008,2009,1,2421,2433,2441,1,4036,4036,4036,1
0.702,2071,2077,2082,1,2083,2101,2098,1,2106,2124,2130,1,2105,2106,2131,1,2048,2059,2073,1,1987,2008,2009,1,2418,2432,2440,1,4036,4036,4036,1
0.703,2071,2077,2082,1,2083,2101,2098,1,2106,2123,2130,1,2105,2106,2131,1,2049,2056,2071,1,1989,2004,2008,1,2419,2429,2441,1,4036,4036,4036,1
0.704,2072,2078,2082,1,2084,2101,2098,1,2107,2124,2130,1,2107,2106,2130,1,2052,2060,2072,1,1993,2009,2009,1,2423,2435,2440,1,4036,4036,4036,1
0.705,2071,2078,2082,1,2084,2101,2099,1,2106,2124,2130,1,2106,2106,2130,1,2049,2058,2073,1,1989,2007,2010,1,2420,2433,2441,1,4036,4036,4036,1
0.706,2072,2078,2083,1,2085,2102,2099,1,2107,2125,2130,1,2107,2106,2130,1,2050,2060,2073,1,1990,2009,2010,1,2420,2434,2441,1,4036,4036,4036,1
0.707,2073,2078,2084,1,2085,2102,2099,1,2108,2125,2130,1,2108,2106,2132,1,2051,2060,2074,1,1991,2009,2011,1,2420,2434,2443,1,4036,4036,4036,1
0.708,2073,2079,2084,1,2085,2102,2099,1,2108,2126,2131,1,2108,2107,2132,1,2051,2062,2075,1,1991,2011,2012,1,2420,2436,2442,1,4036,4036,4036,1
0.709,2074,2079,2084,1,2085,2102,2099,1,2109,2126,2131,1,2108,2107,2133,1,2052,2060,2074,1,1992,2009,2012,1,2421,2434,2444,1,4036,4036,4036,1
0.71,2075,2080,2084,1,2086,2103,2099,1,2110,2127,2131,1,2109,2107,2133,1,2054,2064,2075,1,1996,2014,2012,1,2425,2440,2443,1,4036,4036,4036,1
0.711,2074,2080,2084,1,2086,2103,2099,1,2109,2127,2131,1,2108,2107,2132,1,2052,2063,2076,1,1992,2012,2012,1,2422,2437,2443,1,4036,4036,4036,1
0.712,2074,2078,2084,1,2086,2102,2099,1,2109,2126,2131,1,2108,2106,2133,1,2053,2061,2074,1,1994,2011,2012,1,2423,2436,2443,1,4036,4036,4036,1
0.713,2074,2079,2084,1,2086,2102,2099,1,2109,2126,2130,1,2108,2106,2132,1,2053,2061,2073,1,1994,2011,2011,1,2423,2436,2442,1,4036,4036,4036,1
0.714,2073,2079,2084,1,2085,2102,2099,1,2107,2126,2130,1,2107,2106,2132,1,2051,2060,2073,1,1992,2010,2011,1,2422,2434,2442,1,4036,4036,4036,1
0.715,2073,2079,2083,1,2085,2102,2099,1,2107,2126,2130,1,2107,2106,2131,1,2051,2060,2072,1,1992,2010,2010,1,2422,2434,2441,1,4036,4036,4036,1
0.716,2072,2078,2083,1,2084,2101,2099,1,2106,2125,2130,1,2106,2106,2131,1,2048,2058,2073,1,1988,2008,2010,1,2419,2432,2440,1,4036,4036,4036,1
0.717,2072,2077,2083,1,2084,2100,2099,1,2106,2124,2130,1,2106,2106,2132,1,2049,2055,2071,1,1989,2004,2009,1,2420,2429,2441,1,4036,4036,4036,1
0.718,2073,2078,2082,1,2084,2101,2099,1,2107,2125,2130,1,2107,2106,2131,1,2052,2059,2073,1,1993,2009,2010,1,2423,2435,2440,1,4036,4036,4036,1
0.719,2072,2077,2082,1,2083,2100,2099,1,2106,2124,2130,1,2106,2106,2131,1,2049,2057,2072,1,1989,2006,2010,1,2419,2432,2440,1,4036,4036,4036,1
0.72,2071,2077,2082,1,2083,2100,2098,1,2106,2124,2130,1,2106,2106,2131,1,2048,2059,2072,1,1988,2007,2010,1,2419,2432,2440,1,4036,4036,4036,1
0.721,2071,2077,2082,1,2083,2100,2098,1,2106,2124,2130,1,2106,2106,2131,1,2049,2059,2072,1,1988,2007,2009,1,2419,2432,2441,1,4036,4036,4036,1
0.722,2071,2077,2082,1,2083,2101,2098,1,2106,2125,2130,1,2106,2106,2131,1,2049,2060,2073,1,1988,2008,2010,1,2419,2434,2440,1,4036,4036,4036,1
0.723,2072,2077,2083,1,2084,2101,2098,1,2107,2125,2130,1,2107,2106,2132,1,2050,2059,2072,1,1990,2007,2010,1,2420,2432,2443,1,4036,4036,4036,1
0.724,2074,2078,2084,1,2085,2102,2099,1,2109,2127,2131,1,2109,2107,2132,1,2053,2064,2075,1,1994,2013,2012,1,2424,2438,2443,1,4036,4036,4036,1
0.725,2074,2078,2084,1,2085,2102,2100,1,2108,2127,2131,1,2108,2107,2132,1,2051,2061,2077,1,1991,2010,2014,1,2421,2435,2444,1,4036,4036,4036,1
0.726,2075,2078,2084,1,2086,2103,2100,1,2109,2127,2131,1,2109,2108,2133,1,2053,2062,2076,1,1994,2011,2013,1,2423,2436,2444,1,4036,4036,4036,1
0.727,2075,2079,2084,1,2086,2103,2100,1,2109,2127,2131,1,2109,2108,2134,1,2053,2062,2076,1,1994,2011,2013,1,2423,2436,2444,1,4036,4036,4036,1
0.728,2075,2079,2084,1,2085,2103,2100,1,2109,2127,2131,1,2108,2108,2134,1,2053,2062,2076,1,1993,2011,2013,1,2423,2435,2444,1,4036,4036,4036,1
0.729,2075,2079,2084,1,2085,2103,2100,1,2109,2127,2131,1,2108,2108,2133,1,2053,2062,2075,1,1993,2011,2013,1,2423,2435,2443,1,4036,4036,4036,1
0.73,2074,2079,2084,1,2084,2103,2100,1,2108,2126,2130,1,2107,2107,2132,1,2050,2061,2075,1,1989,2010,2013,1,2420,2434,2442,1,4036,4036,4036,1
0.731,2074,2078,2084,1,2084,2102,2099,1,2108,2125,2130,1,2107,2106,2132,1,2051,2057,2073,1,1992,2006,2011,1,2422,2430,2443,1,4036,4036,4036,1
0.732,2074,2078,2083,1,2084,2102,2099,1,2109,2126,2130,1,2108,2106,2131,1,2053,2061,2074,1,1995,2011,2011,1,2425,2435,2441,1,4036,4036,4036,1
0.733,2073,2077,2082,1,2083,2101,2099,1,2107,2125,2130,1,2107,2106,2131,1,2050,2058,2073,1,1990,2008,2010,1,2421,2432,2441,1,4036,4036,4036,1
0.734,2072,2077,2082,1,2083,2101,2099,1,2106,2125,2130,1,2106,2106,2131,1,2048,2059,2073,1,1988,2009,2010,1,2419,2432,2441,1,4036,4036,4036,1
0.735,2072,2077,2082,1,2083,2101,2099,1,2106,2125,2130,1,2106,2106,2131,1,2048,2059,2072,1,1988,2009,2009,1,2419,2432,2441,1,4036,4036,4036,1
0.736,2072,2077,2082,1,2083,2101,2099,1,2106,2124,2130,1,2106,2106,2131,1,2048,2059,2072,1,1988,2008,2009,1,2419,2433,2440,1,4036,4036,4036,1
0.737,2072,2077,2082,1,2083,2101,2099,1,2106,2124,2130,1,2106,2106,2132,1,2049,2057,2071,1,1989,2005,2008,1,2419,2431,2441,1,4036,4036,4036,1
0.738,2073,2078,2082,1,2083,2101,2099,1,2107,2125,2130,1,2107,2106,2131,1,2051,2061,2073,1,1993,2010,2009,1,2422,2437,2440,1,4036,4036,4036,1
0.739,2072,2078,2082,1,2083,2101,2099,1,2106,2125,2130,1,2106,2106,2131,1,2049,2058,2075,1,1989,2007,2011,1,2419,2433,2442,1,4036,4036,4036,1
0.74,2073,2077,2083,1,2084,2102,2099,1,2107,2126,2130,1,2107,2107,2132,1,2051,2060,2074,1,1992,2010,2010,1,2421,2435,2442,1,4036,4036,4036,1
0.741,2073,2078,2084,1,2084,2102,2100,1,2107,2126,2130,1,2107,2107,2133,1,2051,2060,2074,1,1992,2010,2012,1,2421,2435,2443,1,4036,4036,4036,1
0.742,2074,2079,2084,1,2085,2102,2100,1,2108,2127,2130,1,2108,2107,2133,1,2052,2061,2074,1,1993,2011,2012,1,2422,2435,2443,1,4036,4036,4036,1
0.743,2074,2079,2084,1,2085,2102,2100,1,2109,2127,2131,1,2108,2107,2133,1,2052,2061,2075,1,1994,2011,2013,1,2422,2435,2444,1,4036,4036,4036,1
0.744,2074,2079,2084,1,2085,2102,2100,1,2109,2127,2131,1,2108,2107,2133,1,2050,2061,2076,1,1990,2011,2013,1,2420,2435,2443,1,4036,4036,4036,1
0.745,2074,2079,2085,1,2085,2102,2100,1,2109,2126,2131,1,2108,2107,2134,1,2051,2058,2075,1,1992,2007,2012,1,2421,2432,2444,1,4036,4036,4036,1
0.746,2075,2079,2084,1,2085,2103,2100,1,2110,2127,2131,1,2109,2107,2133,1,2054,2062,2077,1,1996,2012,2013,1,2424,2438,2443,1,4036,4036,4036,1
0.747,2073,2078,2083,1,2084,2102,2100,1,2108,2126,2130,1,2107,2107,2132,1,2051,2059,2074,1,1991,2009,2011,1,2421,2434,2442,1,4036,4036,4036,1
0.748,2072,2078,2083,1,2083,2102,2099,1,2106,2126,2130,1,2106,2107,2132,1,2050,2060,2074,1,1989,2009,2011,1,2419,2434,2442,1,4036,4036,4036,1
0.749,2072,2078,2082,1,2083,2102,2099,1,2106,2126,2130,1,2106,2107,2132,1,2050,2060,2073,1,1989,2009,2009,1,2419,2434,2441,1,4036,4036,4036,1
0.75,2072,2077,2082,1,2083,2101,2099,1,2106,2125,2130,1,2106,2106,2131,1,2050,2060,2073,1,1989,2009,2009,1,2419,2434,2439,1,4036,4036,4036,1
0.751,2072,2077,2082,1,2083,2101,2098,1,2106,2124,2130,1,2106,2106,2132,1,2050,2057,2071,1,1989,2006,2008,1,2419,2431,2441,1,4036,4036,4036,1
0.752,2073,2078,2082,1,2083,2101,2098,1,2107,2125,2130,1,2107,2106,2132,1,2052,2061,2072,1,1992,2011,2008,1,2422,2436,2440,1,4036,4036,4036,1
0.753,2072,2078,2082,1,2083,2101,2098,1,2106,2125,2130,1,2106,2106,2131,1,2049,2060,2074,1,1988,2009,2009,1,2419,2434,2440,1,4036,4036,4036,1
0.754,2072,2077,2082,1,2083,2101,2098,1,2107,2124,2130,1,2107,2106,2132,1,2050,2060,2072,1,1991,2008,2009,1,2421,2434,2440,1,4036,4036,4036,1
0.755,2072,2078,2082,1,2083,2101,2098,1,2107,2124,2130,1,2107,2106,2132,1,2050,2060,2073,1,1991,2008,2010,1,2421,2434,2441,1,4036,4036,4036,1
0.756,2073,2079,2082,1,2084,2101,2098,1,2107,2125,2130,1,2107,2106,2132,1,2051,2061,2073,1,1991,2009,2010,1,2422,2434,2441,1,4036,4036,4036,1
0.757,2074,2079,2083,1,2085,2101,2099,1,2108,2125,2130,1,2108,2106,2132,1,2052,2061,2074,1,1993,2009,2011,1,2422,2434,2442,1,4036,4036,4036,1
0.758,2073,2079,2083,1,2085,2101,2099,1,2108,2125,2130,1,2107,2106,2132,1,2050,2060,2075,1,1990,2008,2012,1,2420,2433,2442,1,4036,4036,4036,1
0.759,2074,2079,2084,1,2085,2101,2099,1,2109,2125,2131,1,2108,2106,2133,1,2052,2058,2074,1,1993,2005,2012,1,2421,2431,2444,1,4036,4036,4036,1
0.76,2075,2080,2084,1,2086,2102,2100,1,2110,2127,2131,1,2109,2107,2133,1,2055,2063,2076,1,1997,2011,2013,1,2422,2437,2443,1,4036,4036,4036,1
0.761,2074,2080,2084,1,2086,2102,2100,1,2109,2127,2131,1,2108,2107,2133,1,2052,2061,2075,1,1993,2009,2013,1,2422,2435,2443,1,4036,4036,4036,1
0.762,2074,2080,2084,1,2085,2102,2100,1,2108,2127,2131,1,2108,2107,2133,1,2052,2061,2075,1,1992,2010,2013,1,2422,2435,2443,1,4036,4036,4036,1
0.763,2074,2080,2084,1,2085,2102,2100,1,2108,2127,2131,1,2108,2107,2132,1,2052,2061,2074,1,1992,2010,2012,1,2421,2435,2443,1,4036,4036,4036,1
0.764,2074,2078,2083,1,2085,2101,2099,1,2108,2125,2131,1,2108,2106,2131,1,2052,2061,2074,1,1992,2009,2012,1,2421,2434,2441,1,4036,4036,4036,1
0.765,2074,2077,2083,1,2085,2100,2099,1,2108,2124,2131,1,2108,2106,2132,1,2051,2058,2072,1,1992,2006,2010,1,2420,2431,2442,1,4036,4036,4036,1
0.766,2074,2078,2083,1,2085,2101,2099,1,2108,2125,2130,1,2108,2106,2131,1,2053,2062,2073,1,1995,2011,2011,1,2423,2436,2440,1,4036,4036,4036,1
0.767,2072,2078,2083,1,2084,2101,2099,1,2107,2125,2130,1,2107,2106,2130,1,2050,2060,2074,1,1990,2009,2010,1,2420,2434,2440,1,4036,4036,4036,1
0.768,2072,2077,2083,1,2084,2100,2098,1,2107,2124,2130,1,2107,2105,2131,1,2051,2060,2072,1,1992,2008,2010,1,2421,2433,2440,1,4036,4036,4036,1
0.769,2072,2077,2083,1,2084,2100,2098,1,2107,2124,2130,1,2107,2105,2131,1,2051,2060,2072,1,1992,2008,2009,1,2421,2433,2440,1,4036,4036,4036,1
0.77,2072,2077,2083,1,2084,2100,2098,1,2107,2124,2130,1,2107,2105,2131,1,2050,2060,2072,1,1990,2008,2009,1,2420,2432,2440,1,4036,4036,4036,1
0.771,2072,2077,2083,1,2084,2100,2098,1,2107,2124,2130,1,2107,2105,2131,1,2050,2060,2073,1,1991,2008,2009,1,2420,2432,2440,1,4036,4036,4036,1
0.772,2071,2077,2083,1,2084,2100,2098,1,2106,2124,2130,1,2106,2105,2131,1,2047,2060,2074,1,1987,2008,2010,1,2417,2432,2440,1,4036,4036,4036,1
0.773,2072,2077,2083,1,2085,2100,2098,1,2107,2124,2130,1,2107,2105,2132,1,2049,2057,2073,1,1990,2005,2010,1,2419,2429,2442,1,4036,4036,4036,1
0.774,2074,2079,2084,1,2086,2102,2099,1,2109,2126,2131,1,2109,2106,2132,1,2053,2062,2074,1,1995,2011,2011,1,2421,2435,2441,1,4036,4036,4036,1
0.775,2074,2079,2084,1,2086,2102,2100,1,2108,2126,2131,1,2108,2106,2133,1,2051,2060,2075,1,1992,2009,2012,1,2421,2433,2443,1,4036,4036,4036,1
0.776,2074,2079,2084,1,2086,2102,2100,1,2108,2127,2131,1,2108,2107,2133,1,2052,2061,2075,1,1992,2011,2012,1,2421,2434,2443,1,4036,4036,4036,1
0.777,2074,2079,2084,1,2086,2102,2100,1,2109,2127,2132,1,2108,2107,2133,1,2052,2061,2076,1,1993,2011,2013,1,2421,2434,2443,1,4036,4036,4036,1
0.778,2074,2079,2084,1,2086,2102,2100,1,2109,2126,2132,1,2108,2107,2133,1,2052,2061,2076,1,1993,2011,2013,1,2421,2436,2442,1,4036,4036,4036,1
0.779,2074,2078,2084,1,2086,2102,2100,1,2109,2125,2132,1,2108,2107,2133,1,2052,2058,2074,1,1993,2008,2012,1,2421,2433,2444,1,4036,4036,4036,1
0.78,2074,2079,2084,1,2086,2103,2100,1,2109,2126,2131,1,2109,2107,2133,1,2054,2063,2075,1,1996,2013,2012,1,2424,2438,2442,1,4036,4036,4036,1
0.781,2073,2079,2083,1,2085,2102,2100,1,2108,2126,2130,1,2107,2107,2131,1,2051,2060,2074,1,1991,2010,2010,1,2420,2435,2441,1,4036,4036,4036,1
0.782,2072,2079,2083,1,2084,2102,2099,1,2106,2126,2130,1,2105,2107,2132,1,2049,2060,2074,1,1989,2010,2010,1,2419,2435,2441,1,4036,4036,4036,1
0.783,2072,2078,2083,1,2084,2101,2099,1,2106,2126,2130,1,2105,2106,2132,1,2049,2061,2073,1,1989,2011,2010,1,2419,2436,2439,1,4036,4036,4036,1
0.784,2072,2078,2083,1,2084,2101,2099,1,2106,2126,2130,1,2105,2106,2132,1,2049,2060,2073,1,1989,2010,2010,1,2419,2434,2439,1,4036,4036,4036,1
0.785,2072,2078,2082,1,2084,2101,2098,1,2106,2126,2130,1,2106,2106,2131,1,2049,2060,2072,1,1990,2010,2009,1,2419,2434,2440,1,4036,4036,4036,1
0.786,2071,2078,2082,1,2083,2101,2098,1,2105,2125,2130,1,2105,2106,2131,1,2047,2058,2073,1,1986,2007,2009,1,2416,2431,2439,1,4036,4036,4036,1
0.787,2072,2078,2082,1,2083,2101,2098,1,2106,2124,2130,1,2106,2106,2132,1,2049,2055,2072,1,1988,2003,2008,1,2418,2428,2440,1,4036,4036,4036,1
0.788,2073,2079,2082,1,2084,2101,2098,1,2108,2125,2130,1,2108,2106,2132,1,2052,2060,2073,1,1993,2009,2009,1,2419,2434,2439,1,4036,4036,4036,1
0.789,2072,2078,2082,1,2084,2101,2099,1,2107,2125,2130,1,2107,2106,2132,1,2049,2058,2074,1,1989,2007,2010,1,2419,2432,2440,1,4036,4036,4036,1
0.79,2073,2079,2083,1,2085,2102,2099,1,2107,2126,2130,1,2108,2107,2132,1,2050,2060,2074,1,1990,2009,2010,1,2419,2433,2440,1,4036,4036,4036,1
0.791,2074,2079,2084,1,2085,2102,2099,1,2108,2126,2131,1,2108,2107,2133,1,2051,2060,2076,1,1991,2009,2012,1,2420,2433,2442,1,4036,4036,4036,1
0.792,2074,2079,2084,1,2085,2102,2100,1,2108,2127,2131,1,2108,2108,2133,1,2051,2062,2077,1,1991,2011,2013,1,2420,2436,2442,1,4036,4036,4036,1
0.793,2074,2079,2084,1,2086,2102,2100,1,2108,2127,2131,1,2109,2108,2134,1,2052,2060,2076,1,1992,2009,2013,1,2421,2434,2444,1,4036,4036,4037,1
0.794,2074,2080,2084,1,2086,2103,2100,1,2109,2128,2131,1,2110,2108,2134,1,2055,2065,2077,1,1996,2015,2014,1,2424,2439,2443,1,4036,4036,4037,1
0.795,2073,2080,2084,1,2086,2103,2100,1,2108,2127,2131,1,2109,2108,2133,1,2052,2063,2076,1,1992,2013,2013,1,2421,2436,2443,1,4036,4036,4036,1
0.796,2073,2078,2084,1,2086,2102,2100,1,2109,2125,2131,1,2109,2107,2134,1,2053,2061,2076,1,1994,2011,2013,1,2423,2435,2443,1,4036,4036,4036,1
0.797,2073,2078,2083,1,2086,2102,2099,1,2109,2125,2131,1,2109,2107,2133,1,2053,2061,2075,1,1994,2011,2012,1,2423,2435,2442,1,4036,4036,4036,1
0.798,2073,2078,2083,1,2085,2101,2099,1,2107,2125,2131,1,2107,2106,2133,1,2052,2060,2075,1,1992,2010,2012,1,2421,2434,2442,1,4036,4036,4036,1
0.799,2073,2078,2082,1,2084,2101,2099,1,2107,2125,2130,1,2107,2106,2131,1,2052,2060,2074,1,1992,2010,2010,1,2421,2434,2441,1,4036,4036,4036,1
0.8,2072,2078,2082,1,2084,2101,2099,1,2106,2125,2130,1,2106,2106,2130,1,2049,2059,2074,1,1988,2009,2010,1,2418,2432,2440,1,4036,4036,4036,1
0.801,2072,2077,2082,1,2084,2101,2099,1,2106,2124,2130,1,2106,2106,2131,1,2050,2056,2072,1,1990,2005,2009,1,2419,2428,2441,1,4036,4036,4036,1
0.802,2073,2077,2082,1,2084,2101,2099,1,2108,2125,2130,1,2107,2106,2131,1,2052,2060,2072,1,1990,2010,2009,1,2419,2434,2439,1,4036,4036,4036,1
0.803,2072,2076,2082,1,2084,2101,2099,1,2106,2125,2130,1,2106,2106,2131,1,2049,2057,2072,1,1990,2007,2009,1,2419,2431,2440,1,4036,4036,4036,1
0.804,2072,2076,2082,1,2084,2101,2099,1,2106,2125,2130,1,2106,2106,2131,1,2049,2058,2072,1,1989,2008,2009,1,2419,2431,2440,1,4036,4036,4036,1
0.805,2072,2076,2082,1,2084,2101,2099,1,2106,2125,2130,1,2107,2106,2131,1,2050,2058,2073,1,1990,2008,2010,1,2419,2431,2440,1,4036,4036,4036,1
0.806,2072,2078,2082,1,2084,2101,2099,1,2106,2125,2130,1,2107,2106,2131,1,2050,2060,2074,1,1990,2009,2011,1,2419,2433,2440,1,4036,4036,4036,1
0.807,2073,2078,2083,1,2084,2101,2099,1,2107,2125,2130,1,2108,2106,2132,1,2051,2058,2073,1,1992,2007,2010,1,2420,2431,2442,1,4036,4036,4036,1
0.808,2074,2079,2083,1,2085,2102,2100,1,2109,2127,2131,1,2109,2107,2132,1,2054,2063,2075,1,1996,2013,2012,1,2424,2437,2442,1,4036,4036,4036,1
0.809,2074,2079,2083,1,2085,2102,2100,1,2108,2127,2131,1,2109,2107,2132,1,2052,2062,2076,1,1992,2012,2013,1,2421,2435,2443,1,4036,4036,4036,1
0.81,2074,2079,2084,1,2086,2102,2100,1,2108,2127,2131,1,2108,2107,2133,1,2052,2062,2076,1,1991,2012,2013,1,2421,2435,2443,1,4036,4036,4036,1
0.811,2074,2080,2084,1,2086,2103,2100,1,2108,2127,2131,1,2108,2108,2133,1,2052,2063,2076,1,1991,2014,2013,1,2421,2438,2442,1,4036,4036,4036,1
0.812,2074,2080,2084,1,2086,2103,2100,1,2109,2127,2131,1,2108,2108,2133,1,2052,2063,2076,1,1991,2013,2013,1,2422,2436,2442,1,4036,4036,4036,1
0.813,2074,2080,2084,1,2086,2103,2100,1,2109,2127,2131,1,2108,2108,2132,1,2052,2063,2075,1,1992,2013,2012,1,2422,2436,2442,1,4036,4036,4036,1
0.814,2073,2079,2084,1,2085,2102,2100,1,2108,2126,2131,1,2107,2107,2131,1,2049,2060,2075,1,1988,2010,2012,1,2419,2433,2440,1,4036,4036,4036,1
0.815,2073,2078,2084,1,2085,2101,2100,1,2108,2125,2131,1,2108,2106,2132,1,2051,2056,2073,1,1991,2005,2010,1,2422,2429,2441,1,4036,4036,4036,1
0.816,2074,2078,2083,1,2085,2101,2100,1,2109,2126,2130,1,2109,2106,2131,1,2053,2060,2073,1,1990,2010,2010,1,2421,2435,2439,1,4036,4036,4036,1
0.817,2073,2078,2082,1,2084,2101,2099,1,2107,2125,2130,1,2107,2106,2130,1,2050,2058,2072,1,1990,2007,2010,1,2421,2432,2439,1,4036,4036,4036,1
0.818,2072,2078,2082,1,2084,2101,2099,1,2107,2125,2130,1,2107,2106,2130,1,2049,2059,2072,1,1989,2008,2010,1,2419,2432,2439,1,4036,4036,4036,1
0.819,2072,2078,2082,1,2084,2101,2099,1,2107,2125,2130,1,2107,2106,2130,1,2049,2059,2072,1,1989,2008,2009,1,2418,2432,2439,1,4036,4036,4036,1
0.82,2072,2077,2082,1,2084,2101,2099,1,2107,2124,2130,1,2107,2106,2130,1,2049,2059,2073,1,1989,2008,2009,1,2418,2432,2438,1,4036,4036,4036,1
0.821,2072,2077,2082,1,2084,2101,2099,1,2107,2124,2130,1,2107,2106,2131,1,2049,2057,2071,1,1989,2006,2008,1,2418,2429,2440,1,4036,4036,4036,1
0.822,2073,2078,2082,1,2084,2102,2099,1,2108,2125,2130,1,2108,2106,2131,1,2052,2061,2072,1,1993,2011,2009,1,2421,2435,2439,1,4036,4036,4036,1
0.823,2073,2078,2082,1,2084,2102,2100,1,2107,2125,2131,1,2107,2106,2131,1,2050,2061,2074,1,1990,2010,2011,1,2418,2433,2441,1,4036,4036,4036,1
0.824,2074,2079,2083,1,2085,2102,2100,1,2108,2126,2131,1,2108,2107,2132,1,2052,2062,2074,1,1993,2011,2011,1,2421,2435,2441,1,4036,4036,4036,1
0.824,2074,2079,2084,1,2085,2102,2100,1,2108,2126,2131,1,2108,2107,2133,1,2052,2062,2076,1,1993,2011,2013,1,2421,2435,2443,1,4036,4036,4036,1
0.826,2074,2079,2084,1,2086,2103,2100,1,2109,2126,2131,1,2109,2107,2133,1,2052,2062,2076,1,1993,2011,2013,1,2422,2435,2443,1,4036,4036,4036,1
0.827,2074,2079,2084,1,2086,2103,2101,1,2109,2126,2131,1,2109,2107,2133,1,2053,2062,2076,1,1995,2011,2013,1,2423,2435,2443,1,4036,4036,4036,1
0.828,2073,2079,2084,1,2086,2103,2101,1,2108,2126,2131,1,2108,2107,2132,1,2051,2062,2077,1,1991,2011,2013,1,2420,2434,2442,1,4036,4036,4036,1
0.829,2073,2079,2084,1,2086,2102,2101,1,2108,2125,2131,1,2108,2107,2133,1,2051,2058,2075,1,1991,2006,2012,1,2420,2430,2443,1,4036,4036,4036,1
0.83,2074,2079,2084,1,2086,2103,2101,1,2109,2126,2131,1,2109,2107,2133,1,2054,2062,2075,1,1991,2011,2012,1,2420,2436,2441,1,4036,4036,4036,1
0.831,2073,2078,2083,1,2085,2102,2100,1,2107,2125,2130,1,2108,2107,2131,1,2051,2059,2074,1,1991,2008,2011,1,2420,2433,2440,1,4036,4036,4036,1
0.832,2072,2078,2083,1,2084,2102,2100,1,2107,2125,2130,1,2107,2107,2131,1,2050,2059,2074,1,1989,2009,2011,1,2419,2432,2440,1,4036,4036,4036,1
0.833,2072,2078,2082,1,2084,2102,2099,1,2107,2125,2130,1,2107,2107,2131,1,2050,2059,2073,1,1989,2009,2010,1,2419,2432,2440,1,4036,4036,4036,1
0.834,2072,2077,2082,1,2084,2101,2099,1,2107,2124,2130,1,2107,2106,2131,1,2050,2059,2073,1,1989,2008,2010,1,2419,2438,2439,1,4036,4036,4036,1
0.835,2072,2077,2082,1,2084,2101,2099,1,2107,2123,2130,1,2107,2106,2132,1,2050,2057,2072,1,1990,2005,2009,1,2419,2433,2440,1,4036,4036,4036,1
0.836,2073,2078,2082,1,2084,2102,2099,1,2108,2124,2130,1,2108,2106,2131,1,2052,2061,2073,1,1993,2010,2009,1,2422,2437,2439,1,4036,4036,4036,1
0.837,2072,2078,2082,1,2084,2102,2099,1,2107,2124,2130,1,2107,2106,2130,1,2049,2059,2072,1,1989,2008,2009,1,2419,2434,2439,1,4036,4036,4036,1
0.837,2072,2078,2082,1,2084,2102,2099,1,2106,2124,2130,1,2106,2106,2131,1,2048,2059,2072,1,1987,2008,2009,1,2418,2434,2439,1,4036,4036,4036,1
0.838,2072,2078,2082,1,2084,2102,2099,1,2106,2126,2130,1,2106,2106,2131,1,2048,2061,2072,1,1987,2010,2010,1,2418,2436,2438,1,4036,4036,4036,1
0.839,2074,2078,2082,1,2085,2102,2099,1,2107,2126,2130,1,2107,2106,2131,1,2050,2061,2072,1,1990,2010,2010,1,2419,2435,2438,1,4036,4036,4036,1
0.841,2075,2078,2083,1,2085,2102,2100,1,2108,2126,2131,1,2108,2106,2133,1,2051,2061,2074,1,1992,2010,2012,1,2420,2435,2441,1,4036,4036,4036,1
0.842,2074,2078,2083,1,2085,2103,2100,1,2108,2126,2131,1,2107,2106,2133,1,2050,2061,2076,1,1989,2010,2013,1,2418,2434,2441,1,4036,4036,4036,1
0.843,2074,2078,2084,1,2085,2103,2100,1,2109,2126,2131,1,2108,2106,2134,1,2052,2058,2075,1,1992,2007,2012,1,2420,2431,2443,1,4036,4036,4036,1
0.844,2075,2079,2084,1,2086,2104,2100,1,2110,2127,2131,1,2110,2107,2134,1,2055,2063,2076,1,1993,2013,2013,1,2421,2437,2442,1,4036,4036,4036,1
0.845,2074,2079,2084,1,2086,2103,2100,1,2109,2127,2131,1,2109,2107,2133,1,2052,2061,2075,1,1993,2010,2013,1,2421,2434,2443,1,4036,4036,4036,1
0.846,2073,2079,2084,1,2085,2103,2100,1,2109,2127,2131,1,2108,2107,2133,1,2052,2061,2075,1,1992,2011,2013,1,2421,2434,2443,1,4036,4036,4036,1
