Timestamp (s),Value
0.0004379749298095703,2352
0.0018248558044433594,2236
0.0028150081634521484,2190
0.0037949085235595703,2190
0.004688739776611328,2209
0.005657672882080078,2196
0.006615638732910156,2178
0.007641792297363281,2166
0.008644819259643555,2166
0.009648799896240234,2166
0.01056981086730957,2073
0.01155996322631836,1921
0.012450695037841797,1921
0.013424873352050781,1998
0.014412641525268555,2089
0.015405654907226562,2144
0.016376733779907227,2313
0.017361879348754883,2351
0.018748760223388672,2261
0.019737720489501953,2261
0.02069091796875,2243
0.021638870239257812,2238
0.0226438045501709,2240
0.023564815521240234,2207
0.02454090118408203,2204
0.02553081512451172,2204
0.026543855667114258,2161
0.02749800682067871,1963
0.028468847274780273,1963
0.029366731643676758,2012
0.0303497314453125,2090
0.03134274482727051,2111
0.03231692314147949,2208
0.03329777717590332,2350
0.034671783447265625,2295
0.03566384315490723,2295
0.03663182258605957,2263
0.03763890266418457,2274
0.03852963447570801,2289
0.0395047664642334,2262
0.04047679901123047,2240
0.04145693778991699,2220
0.04247784614562988,2197
0.043428897857666016,2015
0.04441070556640625,2015
0.04531097412109375,2020
0.04628396034240723,2086
0.04726886749267578,2071
0.04824972152709961,2155
0.04924178123474121,2322
0.05022692680358887,2322
0.0516359806060791,2249
0.052632808685302734,2227
0.05355072021484375,2232
0.05458474159240723,2238
0.05546283721923828,2247
0.05644083023071289,2224
0.05742383003234863,2194
0.05839681625366211,2207
0.05936694145202637,2203
0.06038093566894531,2203
0.061351776123046875,2142
0.06224775314331055,2157
0.06322884559631348,2056
0.06421184539794922,2123
0.06519198417663574,2206
0.06621575355529785,2206
0.06717371940612793,2362
0.06855392456054688,2251
0.06954693794250488,2204
0.07049965858459473,2204
0.07140564918518066,2217
0.07239174842834473,2191
0.07337284088134766,2159
0.07435965538024902,2137
0.07531189918518066,2122
0.07631278038024902,2122
0.07728886604309082,2011
0.07827877998352051,1824
0.07917165756225586,1824
0.0801548957824707,1883
0.08115363121032715,1940
0.0821218490600586,1968
0.0830998420715332,1993
0.08407402038574219,1993
0.08548092842102051,1888
0.08646297454833984,1888
0.08736181259155273,1859
0.08832383155822754,1824
0.08930683135986328,1791
0.0902867317199707,1725
0.09126567840576172,1678
0.09222674369812012,1678
0.09323692321777344,1604
0.0942378044128418,1503
0.09520268440246582,1293
0.09609770774841309,1308
0.09707283973693848,1339
0.09804892539978027,1316
0.0990300178527832,1378
0.10039591789245605,1322
0.10140585899353027,1243
0.10237884521484375,1243
0.10335183143615723,1198
0.10425877571105957,1184
0.10522699356079102,1168
0.10624170303344727,1110
0.10719895362854004,1059
0.10818362236022949,1012
0.10916996002197266,966
0.11013579368591309,768
0.11103582382202148,768
0.11202192306518555,742
0.11304187774658203,791
0.11399197578430176,748
0.11496686935424805,804
0.11594867706298828,949
0.11735177040100098,962
0.11832499504089355,962
0.11931180953979492,864
0.12020683288574219,822
0.12118983268737793,791
0.12215280532836914,765
0.12312769889831543,712
0.12412476539611816,712
0.12510371208190918,685
0.12608790397644043,639
0.12706303596496582,639
0.1279618740081787,600
0.1289505958557129,604
0.12993192672729492,510
0.1309046745300293,570
0.13189077377319336,651
0.1328897476196289,651
0.13426685333251953,700
0.13523483276367188,660
0.1362287998199463,645
0.13712263107299805,627
0.13809680938720703,644
0.13907480239868164,623
0.14006686210632324,596
0.14104604721069336,602
0.1420307159423828,587
0.14301371574401855,587
0.1439988613128662,533
0.14488673210144043,540
0.14585494995117188,425
0.1468338966369629,498
0.1478409767150879,588
0.14881587028503418,643
0.15020394325256348,694
0.1511838436126709,679
0.15216588973999023,664
0.15314579010009766,688
0.15404796600341797,707
0.15502381324768066,721
0.15601086616516113,732
0.15714573860168457,697
0.1580338478088379,707
0.15903067588806152,731
0.16000103950500488,709
0.16098570823669434,641
0.1619718074798584,519
0.16293668746948242,672
0.16391968727111816,792
0.16491389274597168,792
0.16581082344055176,887
0.16678977012634277,963
0.16776394844055176,1149
0.1687479019165039,1084
0.16972899436950684,1033
0.1707308292388916,1033
0.17210698127746582,1016
0.17309069633483887,991
0.17397499084472656,982
0.17495989799499512,975
0.17593765258789062,975
0.17692804336547852,876
0.17789793014526367,752
0.17888164520263672,880
0.17986297607421875,975
0.18086886405944824,975
0.18173480033874512,1055
0.18273472785949707,1160
0.1837177276611328,1353
0.18468284606933594,1322
0.18565773963928223,1268
0.18704676628112793,1248
0.1880338191986084,1248
0.18903183937072754,1233
0.1899867057800293,1219
0.19089579582214355,1192
0.19188785552978516,1201
0.19284677505493164,1191
0.19384503364562988,1161
0.19483375549316406,1054
0.19580698013305664,1109
0.19678592681884766,1109
0.19767379760742188,1206
0.1986558437347412,1312
0.19964885711669922,1454
0.20064997673034668,1527
0.20164871215820312,1487
0.2026517391204834,1487
0.20396971702575684,1451
0.2049567699432373,1448
0.20594382286071777,1407
0.20684480667114258,1407
0.20782065391540527,1410
0.20880579948425293,1410
0.2097928524017334,1435
0.21092772483825684,1183
0.21190881729125977,1252
0.21281099319458008,1167
0.21379566192626953,1278
0.21477198600769043,1392
0.21573400497436523,1476
0.21673178672790527,1501
0.21770477294921875,1542
0.21869182586669922,1542
0.21964788436889648,1525
0.22057604789733887,1560
0.22155475616455078,1593
0.22252798080444336,1587
0.2235257625579834,1576
0.2245018482208252,1576
0.22587966918945312,1566
0.22686171531677246,1517
0.2277507781982422,1482
0.22875189781188965,1339
0.22973370552062988,1414
0.23070693016052246,1510
0.23168277740478516,1561
0.23266363143920898,1642
0.23365283012390137,1841
0.2346477508544922,1841
0.2356569766998291,1777
0.2365097999572754,1748
0.23748469352722168,1728
0.23846673965454102,1736
0.23943281173706055,1708
0.24043798446655273,1708
0.2418198585510254,1709
0.2427966594696045,1689
0.24369382858276367,1610
0.24466991424560547,1461
0.2456498146057129,1476
0.24665188789367676,1569
0.24765276908874512,1593
0.2486588954925537,1761
0.24957895278930664,1975
0.25055480003356934,1975
0.25145697593688965,1900
0.25244903564453125,1849
0.25342798233032227,1832
0.25440168380737305,1845
0.25539374351501465,1828
0.2567789554595947,1795
0.2577688694000244,1795
0.2587418556213379,1783
0.25971484184265137,1735
0.2606546878814697,1680
0.2616548538208008,1613
0.26256895065307617,1637
0.26355981826782227,1607
0.2645418643951416,1695
0.2655208110809326,1950
0.2664928436279297,1950
0.26738691329956055,1959
0.2683749198913574,1911
0.2693798542022705,1921
0.2703359127044678,1894
0.27132391929626465,1895
0.272305965423584,1895
0.27368688583374023,1874
0.2746586799621582,1865
0.2756617069244385,1852
0.27655601501464844,1852
0.27753376960754395,1734
0.2785148620605469,1697
0.2794787883758545,1597
0.28046679496765137,1755
0.2814626693725586,1894
0.2824409008026123,1894
0.283430814743042,1947
0.284315824508667,1915
0.2853047847747803,1984
0.28627681732177734,1945
0.28727293014526367,1952
0.2882528305053711,1964
0.2896568775177002,1941
0.290647029876709,1920
0.2915818691253662,1900
0.292496919631958,1908
0.2934730052947998,1831
0.2944457530975342,1748
0.29541563987731934,1604
0.2963988780975342,1745
0.29738879203796387,1876
0.2983858585357666,1876
0.299365758895874,1967
0.3002607822418213,1999
0.3012387752532959,2161
0.302203893661499,2089
0.30320000648498535,2041
0.3041877746582031,2041
0.3051598072052002,2018
0.3065457344055176,1993
0.3075237274169922,1972
0.3084249496459961,1972
0.3094017505645752,1960
0.31038594245910645,1847
0.3113737106323242,1693
0.312349796295166,1691
0.3133218288421631,1864
0.3142998218536377,1864
0.31528687477111816,1952
0.3162717819213867,2021
0.3171730041503906,2217
0.318145751953125,2162
0.3191368579864502,2112
0.3201138973236084,2085
0.3211038112640381,2085
0.3224828243255615,2066
0.3234717845916748,2030
0.32436394691467285,2030
0.3253457546234131,2026
0.326312780380249,1968
0.32730865478515625,1888
0.3282928466796875,1810
0.32926368713378906,1836
0.33024096488952637,1836
0.33122777938842773,1946
0.33212804794311523,2067
0.33311986923217773,2238
0.3340888023376465,2264
0.33507466316223145,2209
0.33605194091796875,2199
0.3374369144439697,2161
0.33841371536254883,2148
0.33942079544067383,2087
0.34038877487182617,2087
0.3412926197052002,2088
0.3422567844390869,2080
0.3432338237762451,2102
0.34421682357788086,1955
0.3452138900756836,1913
0.3462047576904297,1913
0.34717392921447754,2024
0.34815001487731934,2097
0.3490467071533203,2150
0.35002875328063965,2253
0.35101985931396484,2225
0.3520228862762451,2268
0.35297679901123047,2219
0.35435962677001953,2209
0.35534071922302246,2167
0.3563237190246582,2167
0.3573009967803955,2153
0.3581979274749756,2138
0.35918164253234863,2147
0.3601548671722412,2051
0.36111998558044434,1944
0.362149715423584,1944
0.3631138801574707,2053
0.3640859127044678,2135
0.36498475074768066,2135
0.3659508228302002,2243
0.36692285537719727,2298
0.3679158687591553,2423
0.36890077590942383,2337
0.36989903450012207,2272
0.3712937831878662,2226
0.3722717761993408,2226
0.3732607364654541,2186
0.3742547035217285,2167
0.3751187324523926,2158
0.376086950302124,2141
0.3770558834075928,2003
0.3780496120452881,1844
0.3790299892425537,1965
0.3800368309020996,2064
0.3810386657714844,2064
0.3819258213043213,2129
0.3828999996185303,2212
0.3838846683502197,2388
0.3848419189453125,2328
0.3858497142791748,2258
0.38681769371032715,2258
0.3881998062133789,2234
0.3891768455505371,2196
0.3900778293609619,2166
0.39107370376586914,2126
0.39204883575439453,2112
0.3930239677429199,2025
0.3940117359161377,1918
0.39506101608276367,1839
0.39605093002319336,1918
0.39702582359313965,1905
0.39800381660461426,1994
0.3990027904510498,2160
0.39995908737182617,2160
0.40092968940734863,2094
0.40190982818603516,2083
0.4029109477996826,2083
0.4038279056549072,2089
0.40479469299316406,2094
0.4057767391204834,2099
0.40675783157348633,2067
0.40773463249206543,2067
0.40873074531555176,2067
0.4101109504699707,2029
0.4110867977142334,1974
0.4120016098022461,1989
0.4129667282104492,1884
0.41394782066345215,1951
0.4149289131164551,2032
0.41591882705688477,2120
0.41688966751098633,2248
0.41788792610168457,2163
0.4188578128814697,2163
0.41975879669189453,2120
0.42075490951538086,2119
0.42174792289733887,2123
0.422717809677124,2087
0.4236948490142822,2060
0.4247438907623291,2060
0.42572689056396484,2042
0.4267137050628662,1917
0.4276888370513916,1764
0.42868566513061523,1728
0.4296588897705078,1879
0.431032657623291,2008
0.4320368766784668,2008
0.43301987648010254,2090
0.4339017868041992,2080
0.4348878860473633,2180
0.4358537197113037,2120
0.4368298053741455,2103
0.43782877922058105,2103
0.4388308525085449,2079
0.43979978561401367,2023
0.4406888484954834,2023
0.4416639804840088,2023
0.44265174865722656,2013
0.4436638355255127,2013
0.4446446895599365,1842
0.44565582275390625,1837
0.44696593284606934,1970
0.44794178009033203,1970
0.4488499164581299,2048
0.4498429298400879,2100
0.45081090927124023,2286
0.45179080963134766,2215
0.4527618885040283,2158
0.45375490188598633,2158
0.4547388553619385,2138
0.45572781562805176,2067
0.45669984817504883,2067
0.4576447010040283,2053
0.4585747718811035,2038
0.4595646858215332,2050
0.4605247974395752,1895
0.4615349769592285,1825
0.46291470527648926,1934
0.4638950824737549,1934
0.464871883392334,2009
0.465770959854126,2117
0.4667656421661377,2296
0.46773195266723633,2255
0.46871495246887207,2186
0.46985387802124023,2154
0.47075486183166504,2142
0.4717240333557129,2121
0.4727168083190918,2102
0.47371697425842285,2072
0.47467589378356934,2068
0.47565484046936035,2068
0.4766519069671631,2015
0.4775376319885254,1958
0.47852182388305664,1805
0.47948789596557617,1863
0.48047590255737305,1946
0.4814579486846924,1987
0.4824357032775879,2057
0.483806848526001,2052
0.4848148822784424,2072
0.485792875289917,2072
0.4866828918457031,2073
0.48766589164733887,2093
0.48865485191345215,2112
0.48965978622436523,2071
0.49065184593200684,2071
0.4916527271270752,2071
0.4925849437713623,2057
0.4935469627380371,1832
0.4944438934326172,1832
0.49542665481567383,1844
0.49641966819763184,1933
0.49741268157958984,1950
0.49836277961730957,2045
0.4993627071380615,2273
0.500741720199585,2257
0.5017337799072266,2257
0.5026957988739014,2196
0.5036518573760986,2196
0.504586935043335,2203
0.5055558681488037,2184
0.5065329074859619,2153
0.5075356960296631,2153
0.5085058212280273,2131
0.509484052658081,2051
0.510469913482666,2051
0.5113668441772461,1992
0.5123488903045654,2013
0.5133366584777832,1967
0.5143158435821533,2048
0.5152969360351562,2197
0.5166788101196289,2352
0.5176498889923096,2352
0.5186419486999512,2275
0.5196390151977539,2242
0.5205199718475342,2218
0.5215048789978027,2224
0.5224697589874268,2197
0.5234570503234863,2163
0.5244348049163818,2169
0.5254189968109131,2168
0.5264089107513428,2168
0.5272970199584961,2071
0.528282880783081,2054
0.5292689800262451,1948
0.530235767364502,2029
0.5312330722808838,2131
0.5322198867797852,2131
0.5336639881134033,2181
0.5346548557281494,2193
0.5355618000030518,2186
0.5364868640899658,2205
0.5374526977539062,2236
0.5384256839752197,2240
0.5394077301025391,2238
0.540388822555542,2225
0.5413658618927002,2231
0.5423648357391357,2231
0.5433337688446045,2174
0.5442428588867188,2136
0.545217752456665,1990
0.5461947917938232,2050
0.5471706390380859,2140
0.5481648445129395,2140
0.5491378307342529,2394
0.5505428314208984,2337
0.5515198707580566,2328
0.5524787902832031,2328
0.5533847808837891,2319
0.5543718338012695,2331
0.5553579330444336,2344
0.5563457012176514,2314
0.55731201171875,2311
0.5582966804504395,2311
0.5592739582061768,2290
0.5602560043334961,2071
0.5611598491668701,2071
0.5621497631072998,2101
0.5631160736083984,2184
0.5640919208526611,2204
0.5650696754455566,2362
0.5660858154296875,2503
0.5674698352813721,2456
0.5684337615966797,2456
0.569422721862793,2408
0.5703277587890625,2415
0.5713138580322266,2427
0.5722827911376953,2406
0.5732569694519043,2382
0.5742390155792236,2358
0.5752158164978027,2343
0.5762057304382324,2242
0.5772087574005127,2242
0.5780928134918213,2218
0.5790846347808838,2265
0.5800509452819824,2229
0.5810458660125732,2310
0.5820138454437256,2467
0.5830090045928955,2467
0.5844008922576904,2429
0.5853688716888428,2408
0.5863606929779053,2409
0.5872387886047363,2407
0.5882277488708496,2428
0.5892207622528076,2413
0.5901896953582764,2386
0.591160774230957,2401
0.59214186668396,2406
0.5931236743927002,2406
0.5940279960632324,2321
0.5950257778167725,2343
0.5960028171539307,2240
0.5969698429107666,2323
0.5979597568511963,2414
0.5989487171173096,2414
0.5999608039855957,2452
0.6013376712799072,2394
0.6022977828979492,2421
0.603226900100708,2421
0.6041929721832275,2460
0.6051557064056396,2466
0.6061649322509766,2464
0.6071479320526123,2457
0.6081337928771973,2464
0.6091179847717285,2464
0.6100878715515137,2395
0.6109838485717773,2364
0.611975908279419,2222
0.6129708290100098,2303
0.6139509677886963,2392
0.6149020195007324,2441
0.6158909797668457,2669
0.6172778606414795,2596
0.6182630062103271,2539
0.6192378997802734,2539
0.6201469898223877,2525
0.6211228370666504,2530
0.6220817565917969,2539
0.6230618953704834,2505
0.6240699291229248,2501
0.625051736831665,2501
0.6260058879852295,2465
0.6270008087158203,2258
0.6279067993164062,2258
0.6289007663726807,2298
0.6298718452453613,2391
0.6308507919311523,2407
0.6318259239196777,2495
0.6328220367431641,2644
0.6342058181762695,2599
0.6352267265319824,2599
0.636218786239624,2555
0.6371707916259766,2567
0.6380538940429688,2582
0.6390299797058105,2559
0.6400158405303955,2536
0.6409966945648193,2512
0.6419708728790283,2513
0.6429858207702637,2365
0.6439669132232666,2365
0.6449449062347412,2355
0.6458377838134766,2409
0.6468496322631836,2377
0.647824764251709,2455
0.6487889289855957,2601
0.6497468948364258,2601
0.6511468887329102,2540
0.6521170139312744,2496
0.6531069278717041,2496
0.654106855392456,2496
0.6549949645996094,2509
0.656005859375,2489
0.656984806060791,2459
0.6579389572143555,2471
0.6589188575744629,2475
0.659895658493042,2475
0.6608860492706299,2410
0.6617679595947266,2428
0.6627418994903564,2320
0.6637098789215088,2394
0.6646997928619385,2474
0.6656959056854248,2545
0.6666827201843262,2679
0.6680397987365723,2557
0.6690099239349365,2509
0.6700170040130615,2509
0.6709938049316406,2526
0.6718909740447998,2509
0.6728777885437012,2491
0.6738460063934326,2476
0.674828052520752,2473
0.6758096218109131,2473
0.6767928600311279,2390
0.6777689456939697,2237
0.6786680221557617,2237
0.6796488761901855,2312
0.6806447505950928,2392
0.6816468238830566,2392
0.682642936706543,2640
0.6835787296295166,2688
0.6849567890167236,2557
0.6859397888183594,2557
0.6868360042572021,2522
0.6878519058227539,2508
0.6888048648834229,2506
0.6897826194763184,2468
0.6907808780670166,2459
0.6917698383331299,2459
0.6927249431610107,2421
0.6937367916107178,2226
0.6947078704833984,2226
0.6956448554992676,2278
0.6965749263763428,2353
0.6975557804107666,2365
0.6985347270965576,2446
0.699516773223877,2569
0.7005088329315186,2569
0.7018897533416748,2473
0.7028617858886719,2444
0.7037708759307861,2459
0.7047529220581055,2475
0.705744743347168,2452
0.706737756729126,2431
0.7077088356018066,2407
0.7086830139160156,2392
0.7096688747406006,2222
0.7106509208679199,2222
0.7116580009460449,2244
0.7125399112701416,2312
0.7135107517242432,2280
0.7144927978515625,2351
0.7154638767242432,2496
0.7164738178253174,2496
0.7174477577209473,2496
0.7188248634338379,2412
0.7198116779327393,2387
0.7207968235015869,2387
0.7216908931732178,2389
0.7226889133453369,2364
0.7236607074737549,2331
0.7246520519256592,2339
0.7256550788879395,2340
0.7266519069671631,2340
0.7275757789611816,2252
0.728571891784668,2206
0.7294738292694092,2206
0.7304389476776123,2280
0.7314250469207764,2349
0.732421875,2425
0.7333917617797852,2538
0.7343759536743164,2496
0.7357707023620605,2391
0.7367486953735352,2391
0.7377216815948486,2389
0.7386560440063477,2361
0.739656925201416,2332
0.7405886650085449,2315
0.741567850112915,2305
0.7425408363342285,2313
0.7435147762298584,2225
0.7445068359375,2076
0.7454977035522461,2076
0.7464048862457275,2169
0.7473719120025635,2245
0.7483599185943604,2285
0.7493329048156738,2428
0.7503068447113037,2465
0.7513058185577393,2465
0.7526929378509521,2365
0.7536618709564209,2337
0.7546627521514893,2322
0.7555389404296875,2317
0.756523847579956,2281
0.7575159072875977,2271
0.758490800857544,2272
0.7596628665924072,2257
0.7605187892913818,2171
0.7615048885345459,2012
0.7624838352203369,2042
0.7634696960449219,2124
0.7644429206848145,2160
0.7654290199279785,2236
0.7664089202880859,2440
0.767399787902832,2440
0.7682878971099854,2365
0.7692968845367432,2318
0.7702736854553223,2286
0.7712447643280029,2287
0.7722268104553223,2254
0.7736587524414062,2225
0.7746548652648926,2225
0.7755739688873291,2207
0.7765538692474365,2113
0.7774519920349121,1971
0.7784497737884521,1962
0.7794239521026611,2036
0.7804286479949951,2050
0.7813906669616699,2144
0.7823588848114014,2392
0.7833516597747803,2392
0.7842466831207275,2329
0.7852268218994141,2275
0.7862057685852051,2261
0.7871828079223633,2263
0.7881748676300049,2251
0.7891528606414795,2251
0.7905478477478027,2236
0.7915236949920654,2216
0.7925097942352295,2171
0.7934689521789551,2171
0.7943799495697021,2088
0.7953579425811768,2092
0.7963399887084961,2028
0.7973189353942871,2100
0.7983167171478271,2221
0.7993087768554688,2221
0.8002948760986328,2245
0.8011808395385742,2209
0.8021409511566162,2247
0.8031258583068848,2227
0.8041207790374756,2236
0.805088996887207,2245
0.806088924407959,2195
0.8074679374694824,2193
0.8084449768066406,2182
0.8094358444213867,2182
0.8104336261749268,2077
0.8113129138946533,2059
0.8123016357421875,1940
0.8132810592651367,2021
0.8142638206481934,2116
0.8152468204498291,2116
0.8162298202514648,2168
0.817194938659668,2247
0.8181707859039307,2247
0.8190598487854004,2213
0.8200368881225586,2225
0.821037769317627,2242
0.8220417499542236,2230
0.823051929473877,2203
0.824415922164917,2194
0.8253839015960693,2194
0.8263387680053711,2157
0.8273417949676514,2110
0.8282358646392822,1958
0.8292069435119629,2007
0.8301868438720703,2088
0.8311598300933838,2126
0.8321809768676758,2204
0.8331530094146729,2372
0.834108829498291,2372
0.8350117206573486,2294
0.8359806537628174,2260
0.8369588851928711,2237
0.837939977645874,2243
0.838932991027832,2214
0.8399097919464111,2214
0.8412799835205078,2209
0.8422746658325195,2182
0.8432488441467285,2090
0.8441710472106934,1944
0.8451368808746338,1964
0.8461189270019531,2046
0.8471050262451172,2058
0.8480618000030518,2148
0.8490407466888428,2384
0.8500387668609619,2384
0.8510088920593262,2290
0.8519086837768555,2242
0.8528869152069092,2235
0.8538780212402344,2246
0.8548569679260254,2237
0.8558368682861328,2237
0.8568336963653564,2205
0.8582096099853516,2187
0.8591907024383545,2133
0.860163688659668,2133
0.8610618114471436,2069
0.8620569705963135,2104
0.8630359172821045,2048
0.8640079498291016,2123
0.8649947643280029,2252
0.8659708499908447,2252
0.8669478893280029,2264
0.8679468631744385,2244
0.8688557147979736,2244
0.8698298931121826,2228
0.8708028793334961,2237
0.8717718124389648,2247
0.8727569580078125,2211
0.8739287853240967,2205
0.8748176097869873,2205
0.8757917881011963,2193
0.876760721206665,2069
0.8777458667755127,1920
0.8787357807159424,2052
0.8801307678222656,2168
0.8811089992523193,2263
0.8820867538452148,2263
0.882990837097168,2326
0.8839669227600098,2289
0.8849537372589111,2329
0.8859388828277588,2272
0.8869099617004395,2264
0.8878829479217529,2264
0.888859748840332,2231
0.8898439407348633,2202
0.8907709121704102,2163
0.8917357921600342,2145
0.8927128314971924,2056
0.8936977386474609,1948
0.8948318958282471,1800
0.8957278728485107,1892
0.8967287540435791,1886
0.8976969718933105,1972
0.8986759185791016,2120
0.8996567726135254,2286
0.9010448455810547,2157
0.902019739151001,2065
0.9030158519744873,1984
0.9039938449859619,1984
0.9048888683319092,1958
0.9058628082275391,1897
0.9068317413330078,1833
0.907822847366333,1796
0.9088127613067627,1762
0.9097898006439209,1762
0.9107718467712402,1667
0.9116787910461426,1639
0.9126598834991455,1497
0.9136219024658203,1522
0.9146277904510498,1551
0.9156298637390137,1587
0.9166228771209717,1560
0.9179668426513672,1434
0.9189438819885254,1308
0.9199397563934326,1308
0.9208347797393799,1284
0.9218087196350098,1217
0.9227907657623291,1147
0.9237737655639648,1089
0.9248199462890625,1000
0.9258177280426025,979
0.9267897605895996,863
0.927771806716919,785
0.9287598133087158,633
0.9297406673431396,748
0.9307048320770264,818
0.931696891784668,818
0.9326789379119873,864
0.933621883392334,821
0.9345510005950928,878
0.9355347156524658,790
0.9365088939666748,742
0.9374949932098389,742
0.9388828277587891,695
0.9398677349090576,647
0.9408388137817383,575
0.9417479038238525,575
0.94272780418396,533
0.9437088966369629,496
0.9446847438812256,396
0.9456667900085449,401
0.9466419219970703,502
0.947624921798706,502
0.948624849319458,553
0.9495248794555664,580
0.9504928588867188,727
0.9514768123626709,650
0.9524497985839844,578
0.9534189701080322,578
0.9544110298156738,548
0.9558107852935791,502
0.9567859172821045,429
0.957683801651001,429
0.9586658477783203,402
0.9596390724182129,356
0.9606459140777588,308
0.9616267681121826,312
0.9626297950744629,353
0.9636268615722656,353
0.9645628929138184,433
0.9654519557952881,523
0.9664497375488281,687
0.9674088954925537,661
0.9683959484100342,591
0.9693727493286133,552
0.9703629016876221,540
0.9717409610748291,520
0.9727318286895752,468
0.973707914352417,468
0.9746367931365967,471
0.9756317138671875,466
0.9766206741333008,476
0.977531909942627,420
0.9785237312316895,437
0.979517936706543,437
0.9804937839508057,554
0.9814746379852295,629
0.9823596477508545,724
0.9833478927612305,799
0.9843378067016602,764
0.9853129386901855,776
0.9862966537475586,720
0.9876816272735596,726
0.9886548519134521,702
0.9896657466888428,702
0.990642786026001,708
0.9915347099304199,705
0.9925036430358887,733
0.993485689163208,651
0.994459867477417,605
0.9954628944396973,605
0.9964380264282227,752
0.9974169731140137,885
0.9983088970184326,885
0.9992928504943848,994
1.0002648830413818,1009
1.0012547969818115,1089
1.0022408962249756,1035
1.0032219886779785,1021
1.00462007522583,1013
1.0056238174438477,1013
1.006485939025879,995
1.0074818134307861,995
1.0084569454193115,1013
1.0094289779663086,1000
1.0104026794433594,906
1.0113887786865234,906
1.0123608112335205,1008
1.0133638381958008,1111
1.014333963394165,1111
1.0152487754821777,1193
1.01621675491333,1268
1.0171849727630615,1442
1.0181777477264404,1375
1.0191688537597656,1323
1.020143747329712,1323
1.0215227603912354,1306
1.02250075340271,1282
1.0234019756317139,1274
1.024397850036621,1268
1.025432825088501,1266
1.0263738632202148,1153
1.0273427963256836,1023
1.028324842453003,1141
1.0292959213256836,1252
1.0302987098693848,1252
1.031287670135498,1339
1.0321989059448242,1449
1.0331518650054932,1632
1.0341320037841797,1601
1.0351150035858154,1545
1.0360898971557617,1545
1.0374867916107178,1530
1.0384609699249268,1514
1.0394628047943115,1498
1.0403478145599365,1471
1.0413167476654053,1479
1.0423057079315186,1472
1.0432898998260498,1456
1.044440746307373,1274
1.0453228950500488,1358
1.0462939739227295,1336
1.0472776889801025,1437
1.0482637882232666,1584
1.0492439270019531,1750
1.0502228736877441,1691
1.0512120723724365,1668
1.0521049499511719,1668
1.053088903427124,1658
1.0540809631347656,1673
1.0550599098205566,1690
1.0560357570648193,1664
1.0570068359375,1669
1.058396816253662,1670
1.0593979358673096,1670
1.060391902923584,1593
1.061274766921997,1600
1.0622508525848389,1494
1.0632529258728027,1580
1.0642099380493164,1678
1.0652029514312744,1678
1.0661869049072266,1704
1.0671627521514893,1781
1.0681278705596924,1781
1.0690360069274902,1767
1.0700149536132812,1799
1.0710158348083496,1829
1.071974754333496,1824
1.0729598999023438,1810
1.0743377208709717,1813
1.0753147602081299,1813
1.0763099193572998,1770
1.077218770980835,1737
1.0781898498535156,1598
1.0791747570037842,1655
1.0801568031311035,1743
1.0811288356781006,1743
1.0821058750152588,1839
1.0831129550933838,2028
1.084082841873169,2028
1.084981918334961,1964
1.0859520435333252,1941
1.0869309902191162,1925
1.0879077911376953,1937
1.0889008045196533,1912
1.0898916721343994,1912
1.091270923614502,1912
1.0922460556030273,1897
1.0931446552276611,1804
1.0941429138183594,1664
1.0951197147369385,1684
1.096097707748413,1769
1.0970706939697266,1794
1.098050832748413,1897
1.0990357398986816,2147
1.1000218391418457,2147
1.1009159088134766,2066
1.1018970012664795,2022
1.1028828620910645,2009
1.1038508415222168,2022
1.104820966720581,2011
1.1058218479156494,2011
1.1072146892547607,2005
1.1081767082214355,1987
1.109081745147705,1944
1.1100599765777588,1900
1.1110410690307617,1824
1.1120328903198242,1852
1.1130187511444092,1819
1.113999843597412,1974
1.1149728298187256,2168
1.1159417629241943,2168
1.1168439388275146,2183
1.1178407669067383,2120
1.1188158988952637,2123
1.1197879314422607,2092
1.1207668781280518,2092
1.121764898300171,2092
1.1227478981018066,2067
1.124135971069336,2059
1.1251037120819092,2035
1.1259968280792236,2053
1.1269869804382324,1933
1.1279487609863281,1894
1.1289548873901367,1804
1.1299357414245605,1888
1.1309089660644531,2071
1.1318938732147217,2071
1.1328709125518799,2151
1.1337647438049316,2135
1.1347639560699463,2206
1.135732889175415,2166
1.1367099285125732,2174
1.1378459930419922,2187
1.138744831085205,2163
1.139732837677002,2144
1.1407177448272705,2122
1.1417169570922852,2123
1.1427068710327148,2031
1.144075870513916,1933
1.1450419425964355,1933
1.1460237503051758,2017
1.1470208168029785,2100
1.14790678024292,2133
1.1489028930664062,2259
1.1498658657073975,2324
1.1508448123931885,2437
1.1518278121948242,2309
1.1528136730194092,2238
1.1538128852844238,2238
1.1547877788543701,2231
1.1556837558746338,2204
1.156653642654419,2169
1.1576528549194336,2177
1.1586527824401855,2179
1.1596548557281494,2179
1.1609809398651123,2110
1.161956787109375,2146
1.1629467010498047,2201
1.1638619899749756,2185
1.1648378372192383,2245
1.1658129692077637,2344
1.1668007373809814,2507
1.1677687168121338,2450
1.1687417030334473,2325
1.1697516441345215,2325
1.1707348823547363,2319
1.1716618537902832,2292
1.1726548671722412,2267
1.1735718250274658,2249
1.1745598316192627,2243
1.1755518913269043,2243
1.17653489112854,2060
1.1779227256774902,2111
1.178898811340332,2139
1.1798746585845947,2139
1.1807596683502197,2204
1.1817626953125,2312
1.1827468872070312,2474
1.1837177276611328,2488
1.1846940517425537,2419
1.185687780380249,2419
1.1866629123687744,2365
1.1876537799835205,2320
1.188553810119629,2320
1.1895287036895752,2278
1.1905238628387451,2263
1.1914918422698975,2260
1.1924748420715332,2251
1.193462610244751,2110
1.1948459148406982,2088
1.195833683013916,2088
1.1968088150024414,2167
1.19769287109375,2232
1.198697805404663,2290
1.1996889114379883,2379
1.2006638050079346,2352
1.2016568183898926,2371
1.2026607990264893,2314
1.2035856246948242,2308
1.2045907974243164,2308
1.2055737972259521,2275
1.2064650058746338,2249
1.2074368000030518,2220
1.2084248065948486,2212
1.2094006538391113,2095
1.2103917598724365,2095
1.2117829322814941,2124
1.212759017944336,2154
1.2137317657470703,2203
1.2146618366241455,2218
1.2156589031219482,2331
1.2166728973388672,2347
1.2176036834716797,2347
1.218564748764038,2292
1.2195358276367188,2229
1.2205278873443604,2229
1.2214946746826172,2217
1.2224938869476318,2188
1.2234020233154297,2147
1.2243766784667969,2148
1.2253456115722656,2140
1.2263329029083252,2147
1.2273197174072266,2110
1.2287118434906006,2167
1.22969388961792,2167
1.2306509017944336,2167
1.2315666675567627,2204
1.2325358390808105,2273
1.2335398197174072,2425
1.2345190048217773,2341
1.235496997833252,2265
1.2364699840545654,2265
1.2374448776245117,2237
1.2383508682250977,2192
1.2393388748168945,2150
1.2403216361999512,2126
1.2412910461425781,2105
1.2422699928283691,2109
1.2434046268463135,1861
1.2443058490753174,1868
1.2453110218048096,1765
1.2462787628173828,1865
1.2472529411315918,1965
1.2482340335845947,2032
1.2496697902679443,2083
1.250661849975586,2091
1.2516648769378662,2057
1.2525818347930908,2057
1.253476858139038,2067
1.254443883895874,2067
1.255417823791504,2068
1.2563960552215576,2040
1.2573997974395752,2039
1.2583658695220947,2039
1.259340763092041,2008
1.2602448463439941,1945
1.2612287998199463,1795
1.2622268199920654,1831
1.263221025466919,1914
1.264178991317749,1948
1.2651667594909668,2021
1.2665457725524902,2022
1.2675127983093262,2048
1.2685277462005615,2048
1.2694289684295654,2036
1.270392656326294,2053
1.2713537216186523,2068
1.272336721420288,2040
1.2733209133148193,2020
1.274317741394043,2020
1.2752950191497803,1993
1.276282787322998,1910
1.2771728038787842,1774
1.278148889541626,1770
1.2791149616241455,1842
1.2801227569580078,1856
1.2811048030853271,1948
1.2824738025665283,1998
1.2834618091583252,2094
1.284423828125,2094
1.285343885421753,2053
1.2863287925720215,2055
1.2873027324676514,2066
1.2882847785949707,2061
1.2892768383026123,2032
1.2902379035949707,2032
1.2912347316741943,2024
1.292226791381836,1995
1.2931227684020996,1995
1.2941079139709473,1917
1.2950787544250488,1922
1.2960598468780518,1863
1.2970328330993652,1935
1.2980258464813232,2058
1.2993929386138916,2228
1.3003919124603271,2228
1.3013687133789062,2154
1.3022756576538086,2123
1.3032639026641846,2102
1.3042449951171875,2111
1.3052287101745605,2087
1.3061888217926025,2059
1.3071680068969727,2062
1.3081610202789307,2060
1.3091528415679932,2060
1.3100337982177734,1955
1.3110079765319824,1929
1.3120017051696777,1817
1.3129777908325195,1897
1.3139467239379883,1997
1.3149418830871582,1997
1.3163368701934814,2067
1.3173027038574219,2053
1.318213701248169,2048
1.3191769123077393,2075
1.3201568126678467,2104
1.3211536407470703,2115
1.3221218585968018,2121
1.3231606483459473,2102
1.3240997791290283,2112
1.3250679969787598,2112
1.3259656429290771,2086
1.3269639015197754,2034
1.327948808670044,1890
1.328920841217041,1936
1.3299028873443604,2021
1.330885887145996,2021
1.331864833831787,2118
1.3332607746124268,2127
1.3342459201812744,2170
1.3351359367370605,2170
1.3361148834228516,2169
1.3370890617370605,2193
1.3380837440490723,2214
1.339061975479126,2190
1.3400318622589111,2184
1.3410158157348633,2184
1.3419909477233887,2168
1.3429057598114014,2074
1.3438968658447266,1936
1.3448567390441895,1948
1.3458428382873535,2032
1.3468286991119385,2053
1.3477978706359863,2156
1.3491857051849365,2218
1.3501896858215332,2283
1.3511669635772705,2283
1.352064847946167,2247
1.3530468940734863,2257
1.354022741317749,2273
1.354994773864746,2267
1.355989933013916,2243
1.3569879531860352,2243
1.3579609394073486,2231
1.3589386940002441,2184
1.3598299026489258,2184
1.3608057498931885,2107
1.361793041229248,2133
1.3627867698669434,2084
1.3637449741363525,2222
1.3647480010986328,2388
1.3661267757415771,2518
1.367128849029541,2518
1.36808180809021,2417
1.3689899444580078,2373
1.369964838027954,2341
1.3709487915039062,2343
1.3719167709350586,2313
1.3729159832000732,2313
1.373903751373291,2305
1.374875783920288,2288
1.3758509159088135,2288
1.3767528533935547,2179
1.3777248859405518,2151
1.378739833831787,2046
1.3797078132629395,2133
1.3806798458099365,2230
1.381673812866211,2230
1.3830599784851074,2303
1.3840289115905762,2288
1.3850209712982178,2295
1.385915756225586,2295
1.3868987560272217,2323
1.3878767490386963,2330
1.3888399600982666,2331
1.3898329734802246,2335
1.3908288478851318,2330
1.3918097019195557,2330
1.3927817344665527,2283
1.3936786651611328,2225
1.3946688175201416,2084
1.395655870437622,2131
1.3966619968414307,2220
1.3976898193359375,2220
1.399014949798584,2325
1.3999807834625244,2348
1.4009568691253662,2375
1.4019310474395752,2375
1.402831792831421,2368
1.4038138389587402,2384
1.404784917831421,2399
1.4057719707489014,2369
1.4067468643188477,2361
1.4077577590942383,2361
1.408735990524292,2339
1.4097118377685547,2256
1.4106569290161133,2114
1.4115757942199707,2126
1.4125566482543945,2206
1.4135539531707764,2230
1.414536952972412,2324
1.4159128665924072,2358
1.4168970584869385,2437
1.4178898334503174,2437
1.4187867641448975,2409
1.4197666645050049,2424
1.4207358360290527,2443
1.4217259883880615,2432
1.422696828842163,2409
1.4236857891082764,2409
1.424663782119751,2397
1.4256539344787598,2315
1.426555871963501,2315
1.4275367259979248,2258
1.4285109043121338,2282
1.4294838905334473,2244
1.4304640293121338,2321
1.4314658641815186,2468
1.4328398704528809,2618
1.4338150024414062,2618
1.4347877502441406,2543
1.4356968402862549,2509
1.4366888999938965,2484
1.4376709461212158,2488
1.4386508464813232,2459
1.4396588802337646,2459
1.4406518936157227,2453
1.4415779113769531,2444
1.442572832107544,2444
1.443471908569336,2344
1.4444458484649658,2327
1.4454278945922852,2224
1.4464068412780762,2299
1.4473867416381836,2392
1.4483778476715088,2392
1.4497578144073486,2435
1.4507408142089844,2410
1.4517240524291992,2408
1.4526557922363281,2428
1.4536597728729248,2460
1.4546668529510498,2464
1.455570936203003,2464
1.4565587043762207,2450
1.457521915435791,2450
1.4585049152374268,2450
1.459418773651123,2395
1.460411787033081,2355
1.461406946182251,2213
1.4623780250549316,2268
1.4633538722991943,2351
1.4643168449401855,2351
1.4653067588806152,2440
1.4667000770568848,2427
1.4676709175109863,2456
1.4686589241027832,2456
1.4695370197296143,2456
1.4705348014831543,2474
1.471510887145996,2489
1.4724998474121094,2459
1.473475694656372,2455
1.4744677543640137,2455
1.475442886352539,2431
1.4764187335968018,2349
1.4773328304290771,2200
1.4783117771148682,2235
1.4792828559875488,2315
1.4802587032318115,2332
1.4812517166137695,2417
1.4826607704162598,2439
1.4836559295654297,2468
1.4846689701080322,2468
1.4855878353118896,2449
1.4864888191223145,2469
1.487459659576416,2489
1.4884469509124756,2473
1.4894368648529053,2450
1.4904119968414307,2426
1.4913947582244873,2410
1.4923717975616455,2300
1.4932668209075928,2300
1.494251012802124,2252
1.495250940322876,2297
1.496229887008667,2265
1.4971928596496582,2340
1.4981858730316162,2491
1.4995598793029785,2610
1.5005488395690918,2610
1.5015459060668945,2517
1.5025348663330078,2483
1.503415822982788,2456
1.5043988227844238,2456
1.5053699016571045,2423
1.5063648223876953,2385
1.507333755493164,2391
1.5083227157592773,2382
1.5092988014221191,2382
1.510199785232544,2292
1.5111989974975586,2284
1.5121736526489258,2185
1.5131468772888184,2263
1.514136791229248,2348
1.5151057243347168,2348
1.5164988040924072,2375
1.5174729824066162,2342
1.5184729099273682,2349
1.5194339752197266,2349
1.5203478336334229,2381
1.5213367938995361,2378
1.5223088264465332,2369
1.5232758522033691,2356
1.5242938995361328,2358
1.5252759456634521,2358
1.5262467861175537,2285
1.527141809463501,2252
1.5281107425689697,2110
1.5290918350219727,2171
1.530087947845459,2256
1.5310757160186768,2302
1.5320518016815186,2517
1.5334436893463135,2434
1.5344109535217285,2388
1.5354068279266357,2388
1.5363850593566895,2372
1.5372810363769531,2372
1.5382630825042725,2375
1.5392258167266846,2337
1.5402209758758545,2331
1.5412087440490723,2331
1.5421948432922363,2294
1.543163776397705,2085
1.5440759658813477,2085
1.5450398921966553,2121
1.5460216999053955,2194
1.547029972076416,2210
1.5479938983917236,2292
1.5489678382873535,2433
1.550365924835205,2384
1.5513217449188232,2384
1.552323818206787,2345
1.5533158779144287,2351
1.5542089939117432,2363
1.5551869869232178,2337
1.556175708770752,2311
1.5571668148040771,2286
1.5581576824188232,2265
1.5591309070587158,2116
1.5601117610931396,2116
1.5610058307647705,2106
1.5619819164276123,2158
1.562971830368042,2133
1.5639398097991943,2206
1.5649259090423584,2355
1.5659167766571045,2355
1.5673069953918457,2293
1.5682868957519531,2253
1.5692579746246338,2256
1.5702497959136963,2254
1.5711517333984375,2266
1.5721290111541748,2245
1.5730979442596436,2216
1.5740747451782227,2229
1.5750658512115479,2225
1.5760588645935059,2225
1.577035903930664,2166
1.5779447555541992,2184
1.5789399147033691,2085
1.5799050331115723,2154
1.5808687210083008,2232
1.581878662109375,2308
1.582852840423584,2432
1.5842278003692627,2317
1.5852129459381104,2270
1.5861968994140625,2270
1.5870909690856934,2287
1.5880839824676514,2270
1.5890707969665527,2250
1.590033769607544,2235
1.5910298824310303,2233
1.5919957160949707,2233
1.5929667949676514,2146
1.5939679145812988,2000
1.5948717594146729,2000
1.595839023590088,2074
1.5968127250671387,2152
1.5977909564971924,2198
1.598785638809204,2411
1.5997707843780518,2443
1.6011707782745361,2312
1.6021478176116943,2312
1.6031177043914795,2282
1.604022741317749,2271
1.6050009727478027,2267
1.60599684715271,2231
1.6069567203521729,2224
1.6080987453460693,2226
1.609004020690918,2202
1.6099648475646973,2102
1.6109728813171387,1953
1.6119558811187744,1986
1.6129307746887207,2067
1.6139209270477295,2067
1.6148910522460938,2162
1.6158638000488281,2218
1.6168768405914307,2409
1.6177608966827393,2335
1.6187336444854736,2290
1.6197328567504883,2260
1.620701789855957,2264
1.622100830078125,2243
1.6230847835540771,2212
1.6240487098693848,2212
1.6250288486480713,2192
1.625917911529541,2092
1.6269266605377197,1958
1.6278789043426514,1932
1.628875970840454,2008
1.6298608779907227,2025
1.630842924118042,2134
1.6318299770355225,2402
1.63273286819458,2402
1.6336877346038818,2361
1.634692907333374,2296
1.635664939880371,2275
1.6366667747497559,2269
1.6376538276672363,2256
1.639009714126587,2200
1.6400089263916016,2200
1.6409838199615479,2193
1.641974687576294,2169
1.6428747177124023,2175
1.6438488960266113,2073
1.6448109149932861,2064
1.6458146572113037,2003
1.6467888355255127,2079
1.647770881652832,2259
1.64876389503479,2259
1.6496827602386475,2297
1.6506869792938232,2256
1.6516668796539307,2280
1.6526799201965332,2247
1.6536009311676025,2249
1.6545627117156982,2249
1.6559486389160156,2225
1.6569278240203857,2209
1.657930850982666,2182
1.658902883529663,2182
1.6597988605499268,2061
1.6607706546783447,2016
1.6617357730865479,1900
1.6627068519592285,1972
1.6637318134307861,2069
1.6647067070007324,2069
1.6657018661499023,2162
1.6665937900543213,2145
1.6675398349761963,2246
1.668534755706787,2198
1.6695427894592285,2190
1.6705288887023926,2192
1.6714849472045898,2154
1.672865629196167,2140
1.673860788345337,2105
1.6748559474945068,2105
1.6758337020874023,2058
1.676731824874878,1970
1.677710771560669,1808
1.6786749362945557,1826
1.679654836654663,1888
1.680649995803833,1888
1.6816539764404297,1963
1.6826627254486084,2138
1.6835267543792725,2138
1.6845030784606934,2044
1.6854798793792725,1973
1.6864588260650635,1916
1.6874470710754395,1889
1.6884307861328125,1788
1.6898047924041748,1719
1.690781831741333,1719
1.6916699409484863,1674
1.69266676902771,1541
1.6936688423156738,1363
1.6946418285369873,1318
1.6956627368927002,1345
1.6965880393981934,1345
1.69757080078125,1412
1.6985647678375244,1563
1.6995530128479004,1563
1.7004497051239014,1455
1.7014179229736328,1347
1.7023990154266357,1279
1.7033679485321045,1235
1.7043678760528564,1171
1.7057428359985352,1044
1.7067420482635498,1044
1.707718849182129,1000
1.7086577415466309,937
1.7096619606018066,884
1.710575819015503,789
1.7115697860717773,761
1.7126877307891846,678
1.713592767715454,752
1.7145638465881348,834
1.715559959411621,946
1.7165346145629883,970
1.7175250053405762,883
1.718508005142212,883
1.7194817066192627,810
1.7203967571258545,762
1.7213807106018066,729
1.7223548889160156,669
1.7233328819274902,632
1.7243118286132812,606
1.7252910137176514,551
1.7266747951507568,541
1.7276599407196045,501
1.7286698818206787,501
1.7295589447021484,546
1.7305307388305664,590
1.731489658355713,607
1.7324738502502441,700
1.7334928512573242,674
1.7344558238983154,674
1.7354397773742676,599
1.736412763595581,576
1.7373137474060059,576
1.7382848262786865,543
1.739285945892334,515
1.740257740020752,481
1.7412469387054443,476
1.7422096729278564,435
1.7436606884002686,407
1.7445917129516602,407
1.7455689907073975,504
1.7464759349822998,567
1.7474439144134521,565
1.7484259605407715,669
1.7494080066680908,751
1.7504148483276367,751
1.7514057159423828,647
1.7523689270019531,602
1.7533388137817383,602
1.7542378902435303,607
1.7552177906036377,586
1.756206750869751,555
1.757185697555542,569
1.7581548690795898,579
1.7591516971588135,579
1.7605409622192383,570
1.7615118026733398,613
1.7625157833099365,696
1.7633929252624512,676
1.7643897533416748,741
1.7653639316558838,854
1.7663376331329346,1020
1.767333745956421,883
1.7683358192443848,819
1.7692978382110596,819
1.7702908515930176,838
1.7711617946624756,833
1.772157907485962,827
1.7731378078460693,823
1.7741189002990723,832
1.7750966548919678,832
1.776479959487915,777
1.777451992034912,794
1.7783548831939697,863
1.7793500423431396,819
1.780336856842041,907
1.7812988758087158,1039
1.7822768688201904,1203
1.7832698822021484,1223
1.784242868423462,1122
1.7852327823638916,1122
1.7862238883972168,1101
1.787111759185791,1108
1.788090705871582,1124
1.7890679836273193,1101
1.7900588512420654,1112
1.7910468578338623,1112
1.792442798614502,1086
1.793414831161499,1056
1.7943928241729736,1011
1.7952897548675537,1011
1.796233892440796,1105
1.7972469329833984,1203
1.7982428073883057,1278
1.799217939376831,1419
1.8001978397369385,1373
1.8011689186096191,1373
1.8021550178527832,1342
1.8031537532806396,1366
1.8040518760681152,1396
1.805027723312378,1387
1.8060097694396973,1381
1.8069839477539062,1372
1.8079628944396973,1362
1.8093698024749756,1312
1.810351848602295,1212
1.8113269805908203,1212
1.8122198581695557,1302
1.813199758529663,1398
1.8141968250274658,1450
1.815168857574463,1605
1.8161578178405762,1695
1.817124843597412,1695
1.818105697631836,1618
1.8189997673034668,1607
1.8199958801269531,1600
1.8209998607635498,1614
1.8219778537750244,1599
1.8229258060455322,1578
1.8239150047302246,1590
1.8252956867218018,1574
1.8262929916381836,1426
1.8272666931152344,1426
1.8281779289245605,1490
1.8291468620300293,1582
1.8301246166229248,1603
1.8311219215393066,1693
1.8321490287780762,1836
1.8330938816070557,1836
1.8341009616851807,1756
1.8350698947906494,1745
1.8359558582305908,1755
1.8369228839874268,1791
1.8379216194152832,1792
1.838881015777588,1789
1.839850902557373,1788
1.8412549495697021,1776
1.8422598838806152,1675
1.8432328701019287,1675
1.8441426753997803,1674
1.8451168537139893,1735
1.8460898399353027,1713
1.8470709323883057,1797
1.8482098579406738,1908
1.8491888046264648,2092
1.8500816822052002,2067
1.8510527610778809,2011
1.8520419597625732,1999
1.8530149459838867,1987
1.854006052017212,1981
1.8549787998199463,1981
1.8559658527374268,1962
1.856865644454956,1957
1.857832908630371,1965
1.8588159084320068,1959
1.8597898483276367,1841
1.8607869148254395,1841
1.861772060394287,1952
1.8631517887115479,2023
1.8641197681427002,2107
1.8650407791137695,2107
1.8660118579864502,2168
1.8670258522033691,2118
1.867992877960205,2144
1.8689579963684082,2104
1.870020866394043,2114
1.8709828853607178,2119
1.8719696998596191,2084
1.8729798793792725,2066
1.8739509582519531,2053
1.8749277591705322,2037
1.8759138584136963,1835
1.876903772354126,1835
1.8777856826782227,1852
1.8787939548492432,1943
1.8797550201416016,1946
1.8807287216186523,2031
1.8817038536071777,2190
1.8827018737792969,2190
1.8841006755828857,2126
1.8850769996643066,2086
1.8860538005828857,2102
1.8869349956512451,2120
1.8879528045654297,2124
1.8889169692993164,2106
1.8898868560791016,2084
1.8908748626708984,2099
1.891847848892212,2082
1.8928308486938477,2082
1.8938257694244385,2030
1.8947138786315918,2053
1.895704746246338,1986
1.8966729640960693,2064
1.8976657390594482,2172
1.8986859321594238,2172
1.9000277519226074,2212
1.9010009765625,2165
1.9019887447357178,2168
1.90299391746521,2168
1.903872013092041,2194
1.9048488140106201,2185
1.905824899673462,2167
1.906808853149414,2172
1.9077906608581543,2181
1.9087789058685303,2181
1.9097747802734375,2095
1.9106760025024414,2097
1.9116706848144531,1977
1.9126646518707275,2061
1.9136667251586914,2157
1.914590835571289,2157
1.9155619144439697,2381
1.9169509410858154,2273
1.9179298877716064,2250
1.9189329147338867,2250
1.9199118614196777,2268
1.9208028316497803,2274
1.921783685684204,2279
1.9227619171142578,2261
1.9237418174743652,2266
1.924724817276001,2266
1.9257049560546875,2223
1.9266939163208008,2059
1.9275949001312256,2059
1.9285650253295898,2119
1.9295427799224854,2199
1.9305498600006104,2232
1.9315237998962402,2355
1.9324989318847656,2472
1.9338889122009277,2386
1.9348607063293457,2386
1.9358267784118652,2357
1.9368336200714111,2358
1.9377307891845703,2365
1.9387116432189941,2334
1.9396898746490479,2320
1.940661907196045,2312
1.9416778087615967,2283
1.9426686763763428,2078
1.943666934967041,2078
1.9445209503173828,2081
1.9455029964447021,2171
1.9464738368988037,2180
1.9474477767944336,2264
1.9484608173370361,2408
1.9494199752807617,2408
1.9508206844329834,2316
1.9517927169799805,2286
1.9527697563171387,2307
1.9536917209625244,2327
1.9546728134155273,2323
1.955662727355957,2303
1.9566757678985596,2303
1.9575917720794678,2296
1.9585678577423096,2233
1.9595787525177002,2233
1.9605598449707031,2207
1.9614520072937012,2242
1.9624419212341309,2168
1.9634239673614502,2231
1.9644019603729248,2337
1.9653897285461426,2468
1.9664037227630615,2535
1.9677577018737793,2405
1.9687097072601318,2323
1.9697239398956299,2323
1.9706718921661377,2317
1.9715967178344727,2286
1.9725759029388428,2247
1.9735689163208008,2241
1.9745447635650635,2236
1.9755346775054932,2236
1.9765207767486572,2146
1.9774949550628662,2039
1.9783968925476074,2039
1.979382038116455,2116
1.9803447723388672,2189
1.9813120365142822,2239
1.9822847843170166,2399
1.9832897186279297,2379
1.9846928119659424,2261
1.9856786727905273,2261
1.9866697788238525,2256
1.987527847290039,2236
1.9885356426239014,2217
1.9895057678222656,2190
1.9904887676239014,2179
1.9916636943817139,2182
1.9925079345703125,2099
1.9934918880462646,2021
1.994485855102539,1880
1.995459794998169,1936
1.9964449405670166,2019
1.9974308013916016,2019
1.9983937740325928,2126
1.9993767738342285,2155
2.000298023223877,2311
2.001283884048462,2235
2.0022599697113037,2193
2.003229856491089,2165
2.0043587684631348,2155
2.0052506923675537,2122
2.006255865097046,2081
2.0072407722473145,2084
2.0082099437713623,2077
2.009190797805786,2087
2.010575771331787,2045
2.0115578174591064,2065
2.012547731399536,2088
2.0135269165039062,2088
2.01442289352417,2132
2.0154008865356445,2207
2.0163798332214355,2360
2.0173559188842773,2287
2.018354892730713,2209
2.019329071044922,2209
2.0203006267547607,2181
2.0212018489837646,2135
2.0222008228302,2094
2.023193836212158,2068
2.0241799354553223,2050
2.0251379013061523,2055
2.0261356830596924,1970
2.027529001235962,1982
2.0284979343414307,1971
2.0295066833496094,1971
2.030392646789551,2030
2.03137469291687,2136
2.0323398113250732,2294
2.033331871032715,2289
2.0342888832092285,2210
2.035275936126709,2210
2.0362470149993896,2156
2.0372469425201416,2104
2.0381367206573486,2104
2.039127826690674,2061
2.040088653564453,2047
2.0410869121551514,2044
2.042059898376465,2033
2.043436050415039,2007
2.0444107055664062,1921
2.045393943786621,1921
2.046294927597046,1983
2.047283887863159,2046
2.0482680797576904,2112
2.0492568016052246,2212
2.0502378940582275,2183
2.0511958599090576,2183
2.052201986312866,2129
2.053201913833618,2127
2.054097890853882,2127
2.0550599098205566,2094
2.056022882461548,2071
2.057027816772461,2050
2.057982921600342,2034
2.0589988231658936,1857
2.060364007949829,1800
2.0613439083099365,1800
2.0622317790985107,1898
2.0632119178771973,1986
2.0642077922821045,2035
2.0651767253875732,2177
2.0661587715148926,2225
2.067147970199585,2225
2.0681169033050537,2141
2.069098949432373,2115
2.070089817047119,2115
2.0709898471832275,2113
2.0719690322875977,2088
2.0729458332061768,2059
2.073922634124756,2071
2.074902057647705,2064
2.0763068199157715,1902
2.077288866043091,1902
2.078263759613037,1966
2.079159736633301,2041
2.0801339149475098,2053
2.0811116695404053,2133
2.082102060317993,2244
2.083085775375366,2411
2.08406400680542,2260
2.0850439071655273,2185
2.086014986038208,2185
2.086930990219116,2194
2.0879056453704834,2173
2.088899850845337,2151
2.089862823486328,2143
2.091028928756714,2126
2.091913938522339,2145
2.092906951904297,2022
2.093881845474243,1989
2.094860076904297,1883
2.0958309173583984,1964
2.097216844558716,2083
2.0982069969177246,2358
2.0991878509521484,2358
2.1001689434051514,2293
2.1010727882385254,2244
2.102055788040161,2238
2.1030447483062744,2242
2.104008913040161,2239
2.105004072189331,2239
2.105985641479492,2230
2.106956720352173,2223
2.1079368591308594,2223
2.1088268756866455,2196
2.109816789627075,2106
2.1107959747314453,1965
2.1117770671844482,2010
2.1127638816833496,2099
2.1141529083251953,2291
2.1151187419891357,2291
2.116109848022461,2334
2.117086887359619,2289
2.117983818054199,2327
2.118971824645996,2306
2.119952917098999,2319
2.1209499835968018,2331
2.1219518184661865,2312
2.1229357719421387,2293
2.1239097118377686,2293
2.1247878074645996,2277
2.125772714614868,2174
2.126741886138916,2036
2.1277177333831787,2024
2.1287107467651367,2111
2.129854917526245,2139
2.130763053894043,2243
2.1317238807678223,2373
2.1326956748962402,2559
2.133697748184204,2526
2.134708881378174,2464
2.1360719203948975,2435
2.1370458602905273,2435
2.1380128860473633,2411
2.138918876647949,2387
2.13991379737854,2357
2.1408848762512207,2355
2.141868829727173,2312
2.1428468227386475,2247
2.14382266998291,2276
2.144801616668701,2274
2.1457977294921875,2274
2.1467678546905518,2350
2.1476757526397705,2440
2.148669958114624,2580
2.1496617794036865,2629
2.150660753250122,2569
2.1516878604888916,2569
2.152590751647949,2516
2.1539740562438965,2492
2.154949903488159,2462
2.155836820602417,2422
2.1568119525909424,2420
2.157808780670166,2411
2.1587939262390137,2429
2.1597607135772705,2286
2.1607439517974854,2256
2.161731719970703,2256
2.162702798843384,2352
2.16369891166687,2427
2.164667844772339,2479
2.1655988693237305,2583
2.166564702987671,2571
2.1675238609313965,2611
2.1685309410095215,2536
2.1699106693267822,2530
2.1708836555480957,2497
2.171863079071045,2497
2.1727678775787354,2480
2.1737489700317383,2471
2.1747357845306396,2480
2.1757309436798096,2402
2.1767008304595947,2297
2.177680730819702,2297
2.178663969039917,2378
2.179553747177124,2446
2.180544853210449,2466
2.181527853012085,2568
2.18249773979187,2631
2.183475971221924,2757
2.1844568252563477,2678
2.1858367919921875,2613
2.186832904815674,2569
2.1878128051757812,2569
2.1887857913970947,2530
2.18969988822937,2511
2.190661907196045,2502
2.1916637420654297,2490
2.192668914794922,2357
2.193657875061035,2357
2.194610834121704,2384
2.1955888271331787,2446
2.1964826583862305,2446
2.1974730491638184,2506
2.1984519958496094,2589
2.1994450092315674,2754
2.200415849685669,2697
2.2013838291168213,2629
2.202767848968506,2593
2.2037758827209473,2593
2.2047359943389893,2560
2.205662965774536,2534
2.2066707611083984,2499
2.207584857940674,2491
2.2085838317871094,2424
2.209577798843384,2335
2.2107126712799072,2194
2.211658000946045,2290
2.212580680847168,2290
2.2135558128356934,2383
2.214542865753174,2548
2.2155368328094482,2548
2.2165188789367676,2486
2.21748685836792,2478
2.2184667587280273,2478
2.219372034072876,2479
2.2203567028045654,2489
2.2213478088378906,2499
2.222320795059204,2471
2.2233169078826904,2473
2.2247087955474854,2457
2.22566294670105,2457
2.2266597747802734,2380
2.227667808532715,2407
2.2285256385803223,2311
2.2295377254486084,2383
2.230494976043701,2460
2.231473922729492,2535
2.2324507236480713,2522
2.23344087600708,2508
2.2344236373901367,2508
2.235318660736084,2486
2.23630690574646,2504
2.2372817993164062,2523
2.2382609844207764,2499
2.2392468452453613,2480
2.2402307987213135,2463
2.2416698932647705,2441
2.2425930500030518,2361
2.2435708045959473,2349
2.244570732116699,2216
2.2454710006713867,2302
2.246436834335327,2385
2.247417688369751,2434
2.248405933380127,2592
2.2493748664855957,2637
2.2503788471221924,2637
2.251358985900879,2551
2.252258777618408,2523
2.2532308101654053,2508
2.2542128562927246,2501
2.2551827430725098,2466
2.256181001663208,2433
2.257161855697632,2440
2.258540630340576,2405
2.2595319747924805,2222
2.2604928016662598,2222
2.2614147663116455,2270
2.262404680252075,2355
2.263373851776123,2373
2.2643446922302246,2457
2.265336751937866,2586
2.2663066387176514,2586
2.2672886848449707,2506
2.268267869949341,2464
2.2692060470581055,2464
2.2701878547668457,2479
2.2711517810821533,2460
2.2721307277679443,2438
2.273099899291992,2428
2.274110794067383,2428
2.275484800338745,2249
2.276460647583008,2249
2.2774479389190674,2259
2.2783398628234863,2321
2.279326915740967,2301
2.280308961868286,2377
2.281277894973755,2523
2.2822699546813965,2689
2.2832448482513428,2565
2.2842187881469727,2481
2.285223960876465,2481
2.286120891571045,2468
2.287094831466675,2458
2.2880678176879883,2453
2.2890398502349854,2419
2.2900278568267822,2416
2.2910289764404297,2416
2.292398691177368,2377
2.2933847904205322,2326
2.2942848205566406,2349
2.2952609062194824,2255
2.296243906021118,2321
2.297226905822754,2397
2.2982068061828613,2484
2.2991926670074463,2596
2.3001668453216553,2502
2.3011598587036133,2502
2.3020598888397217,2460
2.3030447959899902,2457
2.304027795791626,2460
2.3050057888031006,2424
2.3059959411621094,2400
2.3070247173309326,2400
2.3080079555511475,2381
2.308997869491577,2261
2.3099708557128906,2113
2.3109519481658936,2089
2.3119328022003174,2160
2.313316822052002,2329
2.3143208026885986,2329
2.3152918815612793,2404
2.3161966800689697,2383
2.317171812057495,2477
2.3181538581848145,2424
2.319124937057495,2414
2.3201279640197754,2414
2.3212599754333496,2382
2.322161912918091,2360
2.3231327533721924,2331
2.3240997791290283,2331
2.325089693069458,2282
2.326079845428467,2282
2.327061891555786,2280
2.328049898147583,2245
2.3289437294006348,2245
2.329921007156372,2303
2.3309056758880615,2401
2.331892967224121,2535
2.3328640460968018,2578
2.333843946456909,2507
2.3352298736572266,2397
2.3362228870391846,2397
2.3371188640594482,2382
2.3381078243255615,2348
2.3390767574310303,2306
2.340068817138672,2301
2.3410449028015137,2294
2.3420159816741943,2307
2.343003749847412,2239
2.3440017700195312,2151
2.344967842102051,2151
2.3458869457244873,2229
2.3468637466430664,2294
2.3478379249572754,2339
2.3488059043884277,2458
2.349802017211914,2435
2.3507797718048096,2435
2.352170944213867,2364
2.35314679145813,2357
2.354060649871826,2337
2.3550479412078857,2320
2.356017827987671,2301
2.357003927230835,2291
2.357966661453247,2297
2.358959913253784,2210
2.3599298000335693,2069
2.3609249591827393,2069
2.3619089126586914,2162
2.3627967834472656,2238
2.363787889480591,2262
2.3647549152374268,2381
2.3657279014587402,2461
2.366731882095337,2461
2.367724657058716,2348
2.3691089153289795,2323
2.370069980621338,2322
2.370966911315918,2322
2.371945858001709,2289
2.3729407787323,2279
2.3739168643951416,2276
2.374910831451416,2270
2.3758809566497803,2126
2.3768630027770996,2126
2.3778507709503174,2164
2.378833770751953,2227
2.3797409534454346,2227
2.3807098865509033,2289
2.3816819190979004,2398
2.382666826248169,2559
2.3836669921875,2392
2.384676694869995,2309
2.3860349655151367,2326
2.387009620666504,2326
2.387910842895508,2307
2.388885021209717,2286
2.38986873626709,2259
2.3908627033233643,2256
2.3918259143829346,2187
2.3928849697113037,2187
2.3938586711883545,2132
2.3948328495025635,2161
2.3958258628845215,2132
2.3968069553375244,2205
2.3977930545806885,2365
2.3987629413604736,2365
2.399758815765381,2338
2.400692939758301,2291
2.4016759395599365,2298
2.4026739597320557,2284
2.4036176204681396,2284
2.4045798778533936,2287
2.4055588245391846,2273
2.40691876411438,2259
2.4079339504241943,2235
2.4088969230651855,2235
2.409803867340088,2149
2.410792827606201,2147
2.4117798805236816,2057
2.4127438068389893,2126
2.4137418270111084,2210
2.4147047996520996,2210
2.415688991546631,2224
2.4166767597198486,2254
2.417574882507324,2254
2.418562650680542,2234
2.4195477962493896,2250
2.4205288887023926,2266
2.4215009212493896,2238
2.422485828399658,2213
2.4238688945770264,2188
2.4248759746551514,2188
2.425858736038208,2095
2.426740884780884,2062
2.42771577835083,1920
2.428689956665039,1981
2.4296648502349854,2055
2.430665969848633,2055
2.431689977645874,2279
2.43269681930542,2280
2.4336960315704346,2280
2.4345128536224365,2195
2.435502767562866,2141
2.436471700668335,2105
2.4374537467956543,2075
2.438459873199463,2014
2.4394328594207764,2014
2.440814733505249,1981
2.4417929649353027,1923
2.4428048133850098,1653
2.443681001663208,1653
2.444666862487793,1660
2.4456686973571777,1694
2.4465930461883545,1694
2.4475808143615723,1739
2.4485697746276855,1810
2.4495697021484375,1810
2.4505269527435303,1687
2.4514377117156982,1608
2.4524097442626953,1546
2.4534080028533936,1514
2.454399824142456,1437
2.4553616046905518,1362
2.456739664077759,1332
2.4577198028564453,1258
2.4587018489837646,980
2.459685802459717,980
2.460582733154297,931
2.4615848064422607,930
2.4625449180603027,854
2.4635729789733887,875
2.4645209312438965,1011
2.4655158519744873,1011
2.46646785736084,897
2.4674477577209473,794
2.4683399200439453,747
2.469331979751587,704
2.470301866531372,663
2.471303939819336,628
2.4722816944122314,567
2.473675012588501,535
2.474691867828369,471
2.4756927490234375,471
2.4765207767486572,430
2.477508783340454,463
2.478512763977051,376
2.479496955871582,415
2.4804580211639404,462
2.481428861618042,462
2.4824187755584717,486
2.483414888381958,453
2.4842958450317383,453
2.485306739807129,415
2.4862687587738037,407
2.4872419834136963,397
2.4882218837738037,327
2.489198684692383,295
2.490590810775757,271
2.4915618896484375,271
2.4924638271331787,239
2.493468761444092,288
2.49444580078125,232
2.495415687561035,291
2.496389865875244,342
2.4973888397216797,342
2.498356819152832,400
2.4993298053741455,421
2.5003368854522705,519
2.5012269020080566,451
2.502203941345215,422
2.503175973892212,404
2.50416898727417,389
2.505553960800171,376
2.506136655807495,376
2.507528781890869,361
2.50850772857666,336
2.509392738342285,351
2.5103728771209717,290
2.5113468170166016,329
2.5123419761657715,399
2.5133209228515625,414
2.5142908096313477,489
2.515286922454834,697
2.516278028488159,697
2.517192840576172,651
2.5181617736816406,618
2.519145965576172,590
2.5201048851013184,602
2.5210797786712646,582
2.522458791732788,574
2.523455858230591,574
2.5244479179382324,561
2.5254268646240234,521
2.526317834854126,470
2.5272929668426514,473
2.5283048152923584,545
2.529291868209839,553
2.530423641204834,718
2.5313007831573486,823
2.5322768688201904,1002
2.5332767963409424,983
2.5342557430267334,930
2.53523588180542,930
2.53621768951416,917
2.5372049808502197,901
2.538100004196167,901
2.539072036743164,886
2.5400519371032715,892
2.541046619415283,912
2.542012929916382,879
2.5429928302764893,776
2.544365644454956,833
2.5453457832336426,833
2.5462608337402344,929
2.5472357273101807,1026
2.5482139587402344,1151
2.549217700958252,1244
2.5501887798309326,1215
2.5511608123779297,1215
2.5521509647369385,1180
2.5531179904937744,1200
2.554104804992676,1200
2.5549938678741455,1182
2.5559749603271484,1181
2.556964874267578,1184
2.557945728302002,1193
2.558919906616211,1067
2.5603089332580566,1034
2.561288833618164,1034
2.5622689723968506,1142
2.5631518363952637,1236
2.564161777496338,1299
2.56514573097229,1429
2.5661356449127197,1448
2.5671019554138184,1518
2.568081855773926,1439
2.569053888320923,1452
2.570053815841675,1452
2.5709519386291504,1446
2.5719308853149414,1433
2.572885036468506,1414
2.5738768577575684,1427
2.574840784072876,1410
2.5758488178253174,1410
2.5772337913513184,1411
2.578209638595581,1461
2.5791828632354736,1518
2.5800986289978027,1525
2.5810697078704834,1618
2.582042694091797,1705
2.5830328464508057,1863
2.5840137004852295,1714
2.584990978240967,1652
2.5859718322753906,1652
2.5868589878082275,1658
2.587869882583618,1642
2.588836908340454,1618
2.5898118019104004,1623
2.5907866954803467,1631
2.592180013656616,1450
2.5931668281555176,1450
2.594146728515625,1514
2.595115900039673,1606
2.596021890640259,1602
2.597005844116211,1682
2.597998857498169,1827
2.598970890045166,2000
2.59995698928833,1969
2.6009347438812256,1844
2.6019058227539062,1844
2.602799892425537,1840
2.603799819946289,1828
2.604782819747925,1817
2.6057558059692383,1796
2.6067469120025635,1795
2.6077158451080322,1795
2.6090970039367676,1747
2.6100709438323975,1711
2.611076831817627,1695
2.6119778156280518,1695
2.6129579544067383,1767
2.613954782485962,1868
2.6148979663848877,1996
2.6158878803253174,1926
2.6168630123138428,1884
2.61783766746521,1884
2.618820905685425,1877
2.6197168827056885,1892
2.6206929683685303,1907
2.621670961380005,1881
2.622666835784912,1875
2.6236698627471924,1875
2.625046968460083,1844
2.626025915145874,1769
2.627007007598877,1776
2.6279296875,1659
2.628894805908203,1754
2.629863977432251,1844
2.6308438777923584,1906
2.631798028945923,2057
2.6328089237213135,2041
2.6337897777557373,2041
2.6347756385803223,1985
2.635680913925171,1987
2.636664867401123,1995
2.637648820877075,1980
2.6386518478393555,1952
2.6396470069885254,1952
2.640570878982544,1935
2.6419589519500732,1890
2.642953872680664,1857
2.6438498497009277,1714
2.6448187828063965,1765
2.645800828933716,1852
2.646782875061035,1890
2.647779703140259,2023
2.64875864982605,2169
2.6496987342834473,2169
2.6507039070129395,2091
2.651672840118408,2058
2.652599811553955,2032
2.6535799503326416,2038
2.6545498371124268,2011
2.6555497646331787,2011
2.6565418243408203,2006
2.6578917503356934,1973
2.658883810043335,1760
2.659773826599121,1760
2.6607608795166016,1770
2.6617178916931152,1851
2.6627228260040283,1871
2.6637020111083984,1964
2.664677858352661,2196
2.665660858154297,2196
2.6666769981384277,2163
2.667541980743408,2117
2.6685378551483154,2106
2.6695187091827393,2118
2.6704797744750977,2111
2.6714608669281006,2101
2.672851800918579,2098
2.6738297939300537,2080
2.674816846847534,2025
2.6757988929748535,2025
2.676701784133911,1962
2.677673816680908,1979
2.67867374420166,1932
2.679666757583618,2070
2.6806678771972656,2187
2.681666851043701,2187
2.682590961456299,2240
2.6834769248962402,2192
2.684459924697876,2212
2.6854357719421387,2191
2.6864328384399414,2197
2.68742299079895,2205
2.6883888244628906,2156
2.689767837524414,2155
2.6907546520233154,2150
2.6917476654052734,2150
2.6927309036254883,2053
2.693671941757202,2038
2.694598913192749,1933
2.695575714111328,2013
2.696553945541382,2108
2.6975507736206055,2108
2.698533773422241,2161
2.6995136737823486,2242
2.700406789779663,2242
2.7013819217681885,2218
2.702371835708618,2236
2.7033488750457764,2254
2.7043399810791016,2241
2.7053158283233643,2218
2.706699848175049,2208
2.7076737880706787,2208
2.708664655685425,2161
2.7096738815307617,2118
2.71055269241333,1975
2.7115259170532227,2026
2.71250581741333,2107
2.7134788036346436,2150
2.7144548892974854,2227
2.7154576778411865,2393
2.7164368629455566,2393
2.717344045639038,2322
2.718320846557617,2292
2.719295024871826,2268
2.720268726348877,2274
2.7212648391723633,2245
2.7222390174865723,2245
2.7236647605895996,2238
2.724669933319092,2218
2.7255890369415283,2126
2.7265748977661133,1981
2.72748064994812,2004
2.7284507751464844,2082
2.729431629180908,2098
2.730409860610962,2184
2.73138689994812,2405
2.7323949337005615,2405
2.7333738803863525,2316
2.7342708110809326,2274
2.7352428436279297,2261
2.736226797103882,2273
2.7372050285339355,2259
2.7382097244262695,2259
2.739177942276001,2226
2.7405567169189453,2203
2.7415528297424316,2118
2.742520809173584,2118
2.7434298992156982,2060
2.7444169521331787,2096
2.745396852493286,2052
2.746367931365967,2124
2.747347831726074,2260
2.7483327388763428,2260
2.749316692352295,2265
2.7502968311309814,2235
2.7511959075927734,2235
2.752171039581299,2220
2.7531657218933105,2225
2.7541229724884033,2229
2.7551066875457764,2190
2.7561087608337402,2182
2.7574868202209473,2156
2.758465051651001,2156
2.7594518661499023,2062
2.760343074798584,2044
2.7613377571105957,1938
2.7623188495635986,2016
2.763291835784912,2101
2.764286994934082,2163
2.765253782272339,2182
2.7662267684936523,2211
2.7672219276428223,2211
2.768122911453247,2175
2.7690958976745605,2185
2.7700726985931396,2196
2.7710626125335693,2171
2.7720446586608887,2141
2.7730276584625244,2141
2.7744109630584717,2113
2.7753868103027344,2049
2.7762906551361084,2006
2.777268886566162,1862
2.778240919113159,1913
2.7792398929595947,1996
2.7802188396453857,2039
2.781188726425171,2251
2.782160758972168,2332
2.7831690311431885,2332
2.78409481048584,2241
2.785064935684204,2195
2.7860348224639893,2155
2.787014961242676,2147
2.787980079650879,2105
2.78896164894104,2105
2.789947748184204,2093
2.7913358211517334,2052
2.7923269271850586,1829
2.7932119369506836,1829
2.7942090034484863,1849
2.795186758041382,1923
2.7961678504943848,1941
2.79714298248291,2026
2.7981488704681396,2217
2.799132823944092,2217
2.8000807762145996,2143
2.800980806350708,2107
2.801971912384033,2092
2.8029558658599854,2108
2.80393385887146,2091
2.804908037185669,2072
2.8062939643859863,2070
2.807288646697998,2046
2.8082618713378906,1926
2.8092408180236816,1926
2.810138702392578,1885
2.811119794845581,1918
2.812089681625366,1889
2.813076972961426,1964
2.814077854156494,2117
2.815053701400757,2117
2.816030979156494,2109
2.8169989585876465,2075
2.8179047107696533,2096
2.81889271736145,2085
2.819882869720459,2093
2.8208577632904053,2099
2.8218319416046143,2064
2.823223829269409,2059
2.824193000793457,2051
2.8251876831054688,2051
2.826173782348633,1965
2.827070951461792,1956
2.8280749320983887,1860
2.8290297985076904,1934
2.8300228118896484,2025
2.831002712249756,2025
2.8320047855377197,2058
2.8329918384552,2116
2.8338828086853027,2116
2.834840774536133,2100
2.8358190059661865,2124
2.836826801300049,2145
2.8377747535705566,2127
2.83878493309021,2107
2.84016489982605,2097
2.841139793395996,2097
2.8420448303222656,2024
2.8430190086364746,1986
2.843998908996582,1853
2.844980001449585,1915
2.8459646701812744,2003
2.847014904022217,2003
2.848001003265381,2154
2.8489978313446045,2194
2.8499698638916016,2315
2.8509397506713867,2258
2.8519139289855957,2224
2.852909803390503,2224
2.8538849353790283,2209
2.8548879623413086,2145
2.855790853500366,2145
2.856754779815674,2145
2.8577427864074707,2138
2.85872483253479,2153
2.8596999645233154,1978
2.8606958389282227,1969
2.8620967864990234,2103
2.8630688190460205,2103
2.8640458583831787,2175
2.8649189472198486,2254
2.86594295501709,2429
2.866909980773926,2361
2.8678808212280273,2307
2.8688650131225586,2273
2.869842767715454,2270
2.8708198070526123,2225
2.871816873550415,2225
2.872704029083252,2216
2.8736870288848877,2203
2.8746769428253174,2218
2.8756699562072754,2019
2.876673698425293,1963
2.877671957015991,1963
2.8789968490600586,2069
2.8799827098846436,2164
2.8808817863464355,2272
2.881847620010376,2452
2.882840871810913,2446
2.8838279247283936,2382
2.884805917739868,2356
2.8857908248901367,2325
2.8867647647857666,2312
2.887741804122925,2312
2.8886656761169434,2288
2.8896799087524414,2279
2.8906798362731934,2285
2.8915998935699463,2273
2.8925788402557373,2153
2.893552780151367,2153
2.8945469856262207,2226
2.8959317207336426,2298
2.896913766860962,2400
2.8978068828582764,2400
2.898793935775757,2461
2.899770736694336,2427
2.900773763656616,2446
2.9017627239227295,2405
2.9027299880981445,2407
2.903712034225464,2407
2.9046857357025146,2379
2.9055838584899902,2361
2.9065709114074707,2342
2.9075448513031006,2330
2.9085428714752197,2216
2.9095118045806885,2083
2.9104907512664795,2091
2.9119038581848145,2223
2.91290283203125,2353
2.9138686656951904,2353
2.914843797683716,2445
2.9157228469848633,2451
2.916717767715454,2547
2.9177086353302,2490
2.9186859130859375,2468
2.919672727584839,2462
2.9206697940826416,2446
2.921679735183716,2389
2.9226088523864746,2389
2.9234938621520996,2387
2.92449688911438,2371
2.9254658222198486,2368
2.926449775695801,2255
2.9274396896362305,2244
2.928837776184082,2365
2.9298057556152344,2365
2.9308018684387207,2427
2.9317808151245117,2470
2.9326789379119873,2647
2.933713912963867,2582
2.934706926345825,2532
2.9356837272644043,2532
2.9365997314453125,2519
2.9375905990600586,2461
2.938584804534912,2461
2.939478874206543,2450
2.9404549598693848,2433
2.9414608478546143,2446
2.942438840866089,2311
2.9433999061584473,2252
2.944545030593872,2152
2.945417881011963,2266
2.946375846862793,2365
2.9473719596862793,2434
2.948347806930542,2569
2.9493188858032227,2578
2.9507148265838623,2497
2.9516947269439697,2497
2.9526689052581787,2506
2.953641891479492,2498
2.95455002784729,2489
2.9555258750915527,2469
2.9565258026123047,2463
2.9575119018554688,2471
2.9584786891937256,2412
2.9594638347625732,2271
2.960455894470215,2271
2.9614226818084717,2340
2.9623098373413086,2410
2.9633078575134277,2434
2.964282751083374,2550
2.9652867317199707,2636
2.9662678241729736,2765
2.9676599502563477,2631
2.96866774559021,2580
2.969658851623535,2561
2.9706687927246094,2553
2.9715049266815186,2512
2.9724838733673096,2492
2.9734408855438232,2480
2.9744298458099365,2472
2.9754157066345215,2257
2.976411819458008,2257
2.9773879051208496,2320
2.978360652923584,2401
2.979275941848755,2393
2.9802517890930176,2461
2.981215000152588,2584
2.98221492767334,2747
2.983191728591919,2697
2.9845869541168213,2602
2.9855496883392334,2571
2.986538887023926,2571
2.987423896789551,2543
2.988428831100464,2513
2.9893980026245117,2477
2.990377902984619,2471
2.9913599491119385,2417
2.9923477172851562,2417
2.993320941925049,2390
2.9943199157714844,2377
2.99529767036438,2377
2.9961957931518555,2439
2.997168779373169,2537
2.9981417655944824,2674
2.9991328716278076,2729
3.0001180171966553,2658
3.001504898071289,2554
3.0025007724761963,2554
3.0034618377685547,2541
3.004377841949463,2508
3.0053699016571045,2464
3.0063459873199463,2459
3.0073318481445312,2449
3.008330821990967,2463
3.0092999935150146,2406
3.0102698802948,2298
3.011262893676758,2298
3.0122287273406982,2381
3.0131337642669678,2447
3.0141119956970215,2496
3.015096664428711,2609
3.016063928604126,2600
3.017070770263672,2600
3.0184738636016846,2537
3.019429922103882,2534
3.020416021347046,2493
3.021303653717041,2493
3.0222928524017334,2471
3.023287773132324,2457
3.0242538452148438,2463
3.0252349376678467,2374
3.0262157917022705,2244
3.027190685272217,2244
3.0281736850738525,2316
3.029176712036133,2393
3.030076742172241,2420
3.031047821044922,2537
3.0320167541503906,2612
3.03299880027771,2728
3.0339887142181396,2598
3.035382032394409,2552
3.036353826522827,2516
3.037343978881836,2516
3.0382378101348877,2476
3.0392098426818848,2457
3.0402040481567383,2448
3.0411829948425293,2435
3.0421576499938965,2294
3.04313588142395,2294
3.044142723083496,2338
3.0451107025146484,2399
3.046097755432129,2381
3.046992778778076,2439
3.0479869842529297,2535
3.048964738845825,2694
3.049943685531616,2638
3.0513296127319336,2551
3.052318811416626,2521
3.0533058643341064,2521
3.054269790649414,2487
3.0551698207855225,2456
3.0561459064483643,2419
3.0571227073669434,2409
3.058112859725952,2329
3.059093952178955,2230
3.0600767135620117,2269
3.061070680618286,2279
3.0620439052581787,2279
3.0629477500915527,2342
3.0639288425445557,2441
3.064918041229248,2593
3.065870761871338,2617
3.066863775253296,2547
3.0682449340820312,2450
3.069247007369995,2450
3.0702168941497803,2434
3.071199893951416,2356
3.0721027851104736,2356
3.0730857849121094,2352
3.0740549564361572,2342
3.0750536918640137,2356
3.0760366916656494,2212
3.0770058631896973,2193
3.0779850482940674,2193
3.07896089553833,2274
3.0798840522766113,2337
3.080861806869507,2387
3.0818288326263428,2476
3.082829713821411,2452
3.0838189125061035,2476
3.084791660308838,2417
3.0861759185791016,2411
3.087169647216797,2360
3.088139057159424,2360
3.089038848876953,2342
3.0899977684020996,2325
3.090986967086792,2330
3.0919668674468994,2219
3.092951774597168,2125
3.093932628631592,2125
3.0949349403381348,2210
3.095897674560547,2276
3.0968010425567627,2300
3.097782611846924,2417
3.0987677574157715,2451
3.0997560024261475,2552
3.100719690322876,2474
3.1021108627319336,2421
3.1030938625335693,2374
3.1040849685668945,2374
3.105064868927002,2336
3.1059730052948,2315
3.1069366931915283,2308
3.107921838760376,2292
3.108886957168579,2154
3.1098928451538086,2154
3.110865831375122,2238
3.111851930618286,2274
3.1128199100494385,2274
3.1137218475341797,2322
3.1147069931030273,2406
3.115696907043457,2561
3.1166720390319824,2488
3.117672920227051,2416
3.119040012359619,2379
3.120015859603882,2379
3.1209919452667236,2341
3.1219818592071533,2314
3.122886896133423,2279
3.1238577365875244,2265
3.124835729598999,2169
3.1258387565612793,2057
3.1268138885498047,2117
3.1278038024902344,2172
3.1287779808044434,2172
3.129760980606079,2239
3.130675792694092,2341
3.1316699981689453,2501
3.1326658725738525,2506
3.133607864379883,2429
3.1345808506011963,2391
3.135974884033203,2356
3.136943817138672,2334
3.137932062149048,2256
3.1389219760894775,2256
3.1398117542266846,2253
3.140795946121216,2238
3.141770839691162,2255
3.142742872238159,2113
3.1437158584594727,2097
3.1447198390960693,2097
3.14570689201355,2190
3.1466779708862305,2252
3.147570848464966,2312
3.148559808731079,2398
3.149540901184082,2370
3.1505367755889893,2387
3.151512861251831,2339
3.1528897285461426,2330
3.153871774673462,2276
3.1548447608947754,2276
3.1557528972625732,2260
3.1567437648773193,2241
3.1577208042144775,2251
3.158700704574585,2131
3.1596758365631104,2046
3.1606698036193848,2046
3.1616718769073486,2116
3.162667989730835,2235
3.1636738777160645,2235
3.1645147800445557,2364
3.1654977798461914,2385
3.166456699371338,2477
3.1674458980560303,2405
3.168444871902466,2362
3.169822931289673,2320
3.1708128452301025,2320
3.1717886924743652,2287
3.172683000564575,2270
3.173677682876587,2267
3.174665927886963,2247
3.17567777633667,2126
3.1766698360443115,2126
3.1775808334350586,2172
3.178560972213745,2232
3.1795618534088135,2232
3.180532932281494,2286
3.181436777114868,2346
3.1824028491973877,2510
3.183393716812134,2441
3.184368848800659,2377
3.1853559017181396,2377
3.1867618560791016,2354
3.187731981277466,2317
3.1887009143829346,2291
3.1896708011627197,2259
3.190582752227783,2245
3.191581964492798,2137
3.1925487518310547,2011
3.193532943725586,1960
3.1945080757141113,2089
3.1954870223999023,2089
3.196392774581909,2175
3.1973748207092285,2279
3.198359727859497,2455
3.199337959289551,2440
3.2003257274627686,2373
3.2013020515441895,2373
3.202293872833252,2338
3.2036778926849365,2309
3.2046709060668945,2230
3.20566987991333,2230
3.2065348625183105,2226
3.2075016498565674,2208
3.2085108757019043,2218
3.2094810009002686,2087
3.210462808609009,2055
3.2114477157592773,2055
3.212423801422119,2141
3.2134127616882324,2199
3.214324951171875,2268
3.21529483795166,2322
3.216263771057129,2277
3.21724271774292,2286
3.2182300090789795,2234
3.2196710109710693,2219
3.2205958366394043,2140
3.2215816974639893,2140
3.2225677967071533,2114
3.2234528064727783,2073
3.224440813064575,2063
3.225409746170044,1912
3.226409912109375,1820
3.227383852005005,1684
3.2283647060394287,1813
3.229339838027954,1895
3.2302489280700684,1895
3.2312357425689697,1987
3.2322278022766113,1952
3.2332048416137695,2001
3.234177827835083,1898
3.2351608276367188,1776
3.2365329265594482,1683
3.2375197410583496,1683
3.238508701324463,1624
3.2394087314605713,1561
3.2403838634490967,1512
3.2413549423217773,1447
3.242342948913574,1270
3.2433278560638428,1270
3.244311809539795,1331
3.2452919483184814,1259
3.246274709701538,1259
3.2471606731414795,1259
3.248145818710327,1265
3.249142646789551,1370
3.2501208782196045,1240
3.251107692718506,1126
3.2520809173583984,1126
3.25346302986145,1063
3.2544398307800293,981
3.2554266452789307,915
3.2563188076019287,846
3.2572999000549316,795
3.2582757472991943,689
3.25925874710083,585
3.2602360248565674,657
3.261232852935791,669
3.262216806411743,669
3.2631938457489014,703
3.264089822769165,763
3.265068769454956,890
3.266051769256592,842
3.2670347690582275,737
3.2680227756500244,671
3.269415855407715,637
3.270383834838867,596
3.2713608741760254,548
3.272291660308838,488
3.273282766342163,470
3.2742667198181152,443
3.2752177715301514,436
3.2762019634246826,401
3.277174711227417,423
3.2781660556793213,423
3.2791388034820557,497
3.280040979385376,535
3.281015634536743,592
3.2820186614990234,658
3.282979726791382,610
3.2839739322662354,610
3.2849488258361816,519
3.28633189201355,514
3.287307024002075,451
3.2882118225097656,451
3.2891898155212402,439
3.290181875228882,422
3.2911579608917236,436
3.2921197414398193,384
3.2931158542633057,358
3.2940869331359863,358
3.295071840286255,467
3.2960729598999023,565
3.29695987701416,565
3.2979488372802734,662
3.2989256381988525,679
3.299919843673706,743
3.3008909225463867,623
3.3018839359283447,622
3.3032538890838623,614
3.304248809814453,614
3.3052117824554443,600
3.306119918823242,597
3.307109832763672,610
3.3080878257751465,593
3.309074878692627,536
3.310044765472412,432
3.3110318183898926,574
3.3119957447052,684
3.3129937648773193,684
3.3139028549194336,765
3.314887762069702,835
3.3158488273620605,1011
3.316835880279541,952
3.3178107738494873,906
3.318800926208496,906
3.320189952850342,896
3.3211867809295654,876
3.322089910507202,868
3.3230538368225098,861
3.3240246772766113,861
3.32503080368042,776
3.325990915298462,672
3.326962947845459,790
3.3279647827148438,887
3.3289248943328857,887
3.3298299312591553,964
3.3308417797088623,1067
3.3317997455596924,1247
3.3327717781066895,1221
3.33374285697937,1169
3.334735870361328,1169
3.336134910583496,1159
3.337113857269287,1147
3.338080883026123,1134
3.339003801345825,1109
3.3399696350097656,1117
3.340939998626709,1118
3.341932773590088,1110
3.3429198265075684,1009
3.3438899517059326,1066
3.3448760509490967,1066
3.345848798751831,1160
3.346740961074829,1250
3.347742795944214,1371
3.3487229347229004,1443
3.349714756011963,1411
3.3507018089294434,1422
3.3520777225494385,1391
3.353036642074585,1395
3.3540408611297607,1364
3.355022668838501,1364
3.3559138774871826,1367
3.356898784637451,1365
3.357858657836914,1392
3.3588497638702393,1259
3.35984468460083,1212
3.3608298301696777,1212
3.361801862716675,1333
3.362790822982788,1422
3.3636889457702637,1479
3.364673614501953,1601
3.365675926208496,1600
3.36667799949646,1600
3.3676669597625732,1551
3.368989944458008,1568
3.3699557781219482,1582
3.370966911315918,1582
3.3719427585601807,1576
3.372833728790283,1575
3.3738176822662354,1592
3.3748018741607666,1564
3.3757786750793457,1458
3.3767569065093994,1458
3.377748966217041,1557
3.3787379264831543,1642
3.3796777725219727,1642
3.3806018829345703,1731
3.3815958499908447,1818
3.382591962814331,1975
3.383563995361328,1898
3.384537696838379,1795
3.385915756225586,1792
3.386918783187866,1792
3.387793779373169,1764
3.388779878616333,1751
3.3897557258605957,1741
3.390753746032715,1735
3.391723871231079,1604
3.3926868438720703,1604
3.393683910369873,1640
3.3946738243103027,1711
3.395667791366577,1711
3.396533966064453,1776
3.3975260257720947,1891
3.3984978199005127,2058
3.3994786739349365,2024
3.400463819503784,1954
3.4018568992614746,1910
3.4028308391571045,1910
3.4037997722625732,1888
3.4046878814697266,1858
3.4057087898254395,1824
3.4066717624664307,1823
3.407672643661499,1801
3.4086668491363525,1801
3.409670829772949,1748
3.410590887069702,1721
3.411574602127075,1721
3.412477970123291,1795
3.413456916809082,1888
3.4144387245178223,2014
3.415405750274658,2099
3.416800022125244,1977
3.417782783508301,1923
3.418778896331787,1923
3.4197349548339844,1928
3.420668840408325,1907
3.421674966812134,1877
3.4225947856903076,1874
3.4235918521881104,1871
3.4245617389678955,1888
3.425548791885376,1816
3.4265339374542236,1699
3.4274256229400635,1699
3.4284019470214844,1777
3.429386854171753,1859
3.4303927421569824,1913
3.4313459396362305,2049
3.4323489665985107,2060
3.433734893798828,1970
3.434713840484619,1970
3.4356789588928223,1973
3.4365828037261963,1966
3.4375627040863037,1958
3.438546895980835,1936
3.4395179748535156,1933
3.440504789352417,1933
3.4414868354797363,1881
3.4424688816070557,1722
3.4434428215026855,1722
3.4443418979644775,1782
3.445328712463379,1860
3.4463107585906982,1893
3.4472997188568115,2018
3.4482758045196533,2135
3.449680805206299,2056
3.4506797790527344,2056
3.4516007900238037,2031
3.452521800994873,2036
3.453511953353882,2044
3.4544849395751953,2015
3.4554569721221924,2004
3.4564368724823,2004
3.4574248790740967,1971
3.4584100246429443,1772
3.459385871887207,1772
3.460282802581787,1803
3.461258888244629,1884
3.462242841720581,1895
3.4632108211517334,1980
3.464209794998169,2133
3.465195894241333,2133
3.466575860977173,2059
3.467545747756958,2037
3.468461751937866,2063
3.4694509506225586,2086
3.4704337120056152,2085
3.4714009761810303,2068
3.4723849296569824,2048
3.473369836807251,2036
3.4743406772613525,2001
3.4753308296203613,2001
3.476318836212158,1970
3.477212905883789,2004
3.478182792663574,1949
3.4791598320007324,2022
3.480142831802368,2147
3.481135845184326,2147
3.482125759124756,2117
3.4834959506988525,2088
3.484494686126709,2103
3.485374927520752,2107
3.4863460063934326,2135
3.4873499870300293,2125
3.4883358478546143,2103
3.489311933517456,2111
3.490288734436035,2109
3.49127197265625,2109
3.4922518730163574,2018
3.493231773376465,2029
3.4941346645355225,1921
3.4951207637786865,2003
3.4960949420928955,2093
3.4970669746398926,2158
3.498053789138794,2187
3.499448776245117,2117
3.5004327297210693,2132
3.5014138221740723,2132
3.5023128986358643,2166
3.5032849311828613,2175
3.504287004470825,2175
3.5052616596221924,2161
3.5062358379364014,2164
3.5072147846221924,2164
3.5082039833068848,2113
3.5091099739074707,2071
3.5100836753845215,1929
3.511070966720581,1992
3.512056827545166,2073
3.5130319595336914,2112
3.5140159130096436,2312
3.515394687652588,2255
3.5163867473602295,2215
3.517364978790283,2215
3.5183486938476562,2204
3.5192320346832275,2211
3.5202178955078125,2219
3.5211987495422363,2186
3.5221996307373047,2175
3.5231807231903076,2172
3.5241549015045166,2134
3.52512788772583,1919
3.5260369777679443,1919
3.5270159244537354,1940
3.5279958248138428,2026
3.5289788246154785,2038
3.5299508571624756,2121
3.5309367179870605,2272
3.532331943511963,2248
3.533317804336548,2248
3.534298896789551,2199
3.53528094291687,2205
3.5361826419830322,2211
3.5371499061584473,2191
3.5381357669830322,2162
3.539127826690674,2132
3.540099859237671,2132
3.5410778522491455,2031
3.542059898376465,2031
3.542977809906006,1991
3.5439438819885254,2019
3.544935941696167,1973
3.545916795730591,2045
3.546888828277588,2177
3.5478708744049072,2177
3.5492568016052246,2145
3.5502426624298096,2106
3.5512287616729736,2100
3.5522048473358154,2100
3.553109884262085,2115
3.554080009460449,2094
3.555062770843506,2061
3.556044816970825,2067
3.557037830352783,2069
3.558015823364258,2069
3.5589959621429443,1989
3.5598909854888916,1986
3.560868740081787,1876
3.561854839324951,1948
3.5628418922424316,2031
3.563823699951172,2092
3.5648000240325928,2262
3.56618595123291,2153
3.5671627521514893,2099
3.568171977996826,2099
3.5690598487854004,2112
3.570051670074463,2099
3.571027994155884,2081
3.5719969272613525,2061
3.572993755340576,2057
3.5739667415618896,2057
3.574950933456421,1984
3.5759267807006836,1816
3.57682466506958,1816
3.577802896499634,1876
3.578786849975586,1953
3.579777717590332,1993
3.580763816833496,2141
3.5817296504974365,2216
3.583120822906494,2123
3.584089756011963,2123
3.585002899169922,2097
3.585983991622925,2093
3.5869717597961426,2094
3.587960720062256,2057
3.5889358520507812,2048
3.589979887008667,2048
3.590955972671509,2030
3.5919487476348877,1931
3.5929298400878906,1784
3.5939059257507324,1796
3.594888925552368,1960
3.595871925354004,1960
3.5968446731567383,2035
3.5978338718414307,2082
3.598740816116333,2261
3.59971284866333,2197
3.6006946563720703,2147
3.601677656173706,2115
3.6026759147644043,2118
3.6040499210357666,2098
3.6050360202789307,2061
3.606010913848877,2061
3.6069087982177734,2047
3.607883930206299,1962
3.6088688373565674,1859
3.6098477840423584,1814
3.610837936401367,1864
3.611809730529785,1864
3.6127848625183105,1972
3.613759994506836,2084
3.6146857738494873,2263
3.615673780441284,2247
3.6166768074035645,2190
3.617680788040161,2190
3.6185998916625977,2144
3.6199827194213867,2134
3.620978832244873,2082
3.621961832046509,2082
3.6229329109191895,2083
3.6238298416137695,2069
3.6248109340667725,2090
3.6257920265197754,1963
3.626776695251465,1945
3.627769708633423,1880
3.6287448406219482,2008
3.6297218799591064,2153
3.630671739578247,2153
3.6315858364105225,2233
3.6325998306274414,2197
3.6335859298706055,2227
3.634563684463501,2192
3.635528802871704,2199
3.636943817138672,2157
3.637922763824463,2157
3.63887882232666,2150
3.639871835708618,2128
3.6407947540283203,2140
3.6417648792266846,2029
3.642700672149658,1957
3.643723964691162,1843
3.6448428630828857,1967
3.645746946334839,2066
3.646730899810791,2127
3.6477267742156982,2275
3.6486878395080566,2312
3.6496808528900146,2312
3.6506779193878174,2234
3.6516828536987305,2228
3.652683973312378,2228
3.653510808944702,2222
3.654498815536499,2197
3.6555068492889404,2168
3.6564979553222656,2175
3.6574478149414062,2167
3.658839702606201,1995
3.659806966781616,1995
3.6607959270477295,2055
3.6617238521575928,2136
3.6626837253570557,2155
3.663681745529175,2245
3.6646840572357178,2359
3.6656079292297363,2359
3.6665937900543213,2272
3.66758394241333,2241
3.6685688495635986,2241
3.669482946395874,2256
3.670447826385498,2241
3.6714329719543457,2219
3.6724207401275635,2218
3.6733949184417725,2220
3.674372911453247,2220
3.6757559776306152,2138
3.676762819290161,2141
3.6776907444000244,2199
3.6786818504333496,2175
3.6796059608459473,2243
3.680600881576538,2370
3.68157696723938,2535
3.6825389862060547,2431
3.6835248470306396,2335
3.6845247745513916,2335
3.6854946613311768,2334
3.686398983001709,2325
3.6873788833618164,2320
3.6883537769317627,2296
3.689337730407715,2294
3.690323829650879,2294
3.6913018226623535,2224
3.6927177906036377,2226
3.693697690963745,2193
3.694671869277954,2193
3.6955456733703613,2253
3.6965417861938477,2333
3.6975479125976562,2444
3.6985108852386475,2530
3.699483871459961,2488
3.700476884841919,2488
3.7014520168304443,2439
3.7024528980255127,2422
3.7034168243408203,2422
3.7043259143829346,2387
3.7052910327911377,2369
3.7062578201293945,2358
3.707247734069824,2354
3.7082459926605225,2210
3.709676742553711,2148
3.710596799850464,2148
3.711596727371216,2242
3.712477922439575,2320
3.7134737968444824,2370
3.714444637298584,2487
3.7154266834259033,2496
3.7164249420166016,2553
3.7173869609832764,2466
3.7183868885040283,2451
3.7193758487701416,2451
3.7203369140625,2434
3.721240758895874,2410
3.722233772277832,2380
3.723191738128662,2382
3.7241756916046143,2352
3.7251698970794678,2352
3.7265567779541016,2339
3.727541923522949,2374
3.728513717651367,2416
3.7294106483459473,2413
3.7303807735443115,2493
3.731381893157959,2563
3.73236083984375,2709
3.733351945877075,2630
3.73433780670166,2511
3.7353198528289795,2511
3.7362077236175537,2497
3.7371928691864014,2464
3.73816180229187,2425
3.739154815673828,2417
3.740116834640503,2410
3.74111270904541,2424
3.742093801498413,2347
3.743483781814575,2386
3.7444570064544678,2401
3.745435953140259,2401
3.7463388442993164,2449
3.7473127841949463,2551
3.748309850692749,2707
3.74930477142334,2655
3.750281810760498,2580
3.7512688636779785,2580
3.7522408962249756,2551
3.7532098293304443,2518
3.7541329860687256,2492
3.7551088333129883,2463
3.7560787200927734,2447
3.757061719894409,2450
3.758044958114624,2378
3.759415626525879,2375
3.7604169845581055,2357
3.761401891708374,2357
3.7623748779296875,2417
3.7632699012756348,2490
3.764248847961426,2607
3.7652297019958496,2671
3.7662248611450195,2610
3.767197847366333,2591
3.7681727409362793,2546
3.769164800643921,2522
3.770068883895874,2522
3.7710447311401367,2484
3.7720277309417725,2466
3.7730138301849365,2457
3.7739927768707275,2448
3.7749688625335693,2303
3.776355743408203,2246
3.7773566246032715,2246
3.7783329486846924,2350
3.779299736022949,2423
3.7801899909973145,2471
3.7811856269836426,2582
3.7821669578552246,2579
3.7831480503082275,2623
3.7841339111328125,2509
3.7851028442382812,2515
3.7860937118530273,2515
3.7869908809661865,2496
3.7879648208618164,2473
3.788963794708252,2444
3.789937734603882,2441
3.79091477394104,2386
3.791898727416992,2386
3.793280839920044,2386
3.7942628860473633,2426
3.7952568531036377,2475
3.79624605178833,2475
3.797139883041382,2554
3.7981209754943848,2614
3.799088716506958,2746
3.800083875656128,2662
3.8010706901550293,2593
3.80204176902771,2593
3.8030238151550293,2561
3.8040058612823486,2518
3.8049018383026123,2467
3.8058717250823975,2457
3.8068747520446777,2441
3.8078699111938477,2452
3.8088319301605225,2303
3.8102078437805176,2373
3.811190605163574,2410
3.81219482421875,2410
3.8131630420684814,2462
3.8140599727630615,2537
3.815035820007324,2699
3.8160297870635986,2644
3.8170018196105957,2576
3.817990779876709,2576
3.8189659118652344,2555
3.819948673248291,2491
3.8209259510040283,2491
3.8218328952789307,2464
3.8228087425231934,2446
3.8238048553466797,2448
3.8247768878936768,2352
3.8257617950439453,2246
3.827162742614746,2294
3.828122854232788,2294
3.8291027545928955,2366
3.830087900161743,2448
3.830986976623535,2588
3.8319947719573975,2621
3.8329999446868896,2561
3.8339738845825195,2541
3.8349428176879883,2501
3.835955858230591,2474
3.8368849754333496,2474
3.8377928733825684,2438
3.8387646675109863,2420
3.8397607803344727,2413
3.840728759765625,2401
3.8417227268218994,2268
3.842855930328369,2120
3.843747854232788,2179
3.8447277545928955,2262
3.8457019329071045,2285
3.8466789722442627,2371
3.8476836681365967,2504
3.8490538597106934,2452
3.8500547409057617,2452
3.8510398864746094,2422
3.8519270420074463,2431
3.8529257774353027,2441
3.8538928031921387,2414
3.854869842529297,2390
3.855848789215088,2366
3.856825828552246,2340
3.8578009605407715,2177
3.8587987422943115,2177
3.8597869873046875,2179
3.8606839179992676,2238
3.861679792404175,2219
3.8626868724823,2291
3.863611936569214,2447
3.864593744277954,2447
3.865983009338379,2375
3.8669769763946533,2335
3.8679487705230713,2340
3.8688440322875977,2339
3.869813919067383,2350
3.870814800262451,2329
3.871816873550415,2299
3.87277889251709,2311
3.873757839202881,2301
3.8747398853302,2301
3.8757128715515137,2227
3.8766987323760986,2253
3.877593755722046,2163
3.8785758018493652,2232
3.8795628547668457,2309
3.8805429935455322,2392
3.8815267086029053,2377
3.882929801940918,2307
3.883913993835449,2305
3.884876012802124,2305
3.8857598304748535,2334
3.8867478370666504,2323
3.8877346515655518,2306
3.8887248039245605,2296
3.889702796936035,2295
3.890687942504883,2295
3.891678810119629,2206
3.8926830291748047,2183
3.8935649394989014,2052
3.8945438861846924,2133
3.895519971847534,2214
3.8964858055114746,2264
3.897458791732788,2422
3.898852825164795,2341
3.899845838546753,2302
3.900822877883911,2302
3.9018030166625977,2302
3.9027090072631836,2306
3.903683662414551,2310
3.904676675796509,2279
3.905702829360962,2275
3.9066848754882812,2275
3.9076008796691895,2245
3.9085917472839355,2045
3.909489870071411,2045
3.910456657409668,2085
3.911468029022217,2166
3.9124438762664795,2188
3.913423776626587,2277
3.9145617485046387,2313
3.9154598712921143,2488
3.916433811187744,2415
3.917418956756592,2363
3.9183926582336426,2326
3.9193809032440186,2323
3.9207680225372314,2300
3.9217357635498047,2264
3.922745704650879,2264
3.9237239360809326,2239
3.924677848815918,2137
3.9255948066711426,2001
3.926581859588623,1982
3.9275529384613037,2051
3.928544044494629,2051
3.929513931274414,2160
3.9305107593536377,2424
3.931469678878784,2424
3.9323818683624268,2381
3.9333529472351074,2329
3.9343578815460205,2310
3.93532395362854,2310
3.936307907104492,2296
3.9376938343048096,2242
3.9386889934539795,2242
3.9396748542785645,2234
3.9406847953796387,2207
3.941541910171509,2204
3.942521810531616,2108
3.943506956100464,2104
3.9444918632507324,2051
3.9454636573791504,2166
3.9464807510375977,2334
3.9474658966064453,2334
3.94842791557312,2363
3.9493088722229004,2321
3.950305700302124,2338
3.9512839317321777,2306
3.952265977859497,2307
3.9532458782196045,2309
3.9546897411346436,2286
3.9556028842926025,2269
3.9565718173980713,2240
3.9576027393341064,2251
3.9585018157958984,2128
3.959474802017212,2084
3.9604296684265137,1977
3.9614226818084717,2051
3.9623918533325195,2220
3.9633967876434326,2220
3.9644007682800293,2289
3.965284824371338,2268
3.9662468433380127,2358
3.9672248363494873,2315
3.9682178497314453,2315
3.9692158699035645,2321
3.970167636871338,2303
3.971552848815918,2290
3.9725499153137207,2269
3.9735517501831055,2269
3.974440813064575,2231
3.975414752960205,2156
3.976378917694092,2011
3.977365016937256,2047
3.978376865386963,2128
3.979341745376587,2128
3.980325937271118,2228
3.981313705444336,2446
3.982218027114868,2446
3.983182668685913,2382
3.9841809272766113,2345
3.9851410388946533,2316
3.986095905303955,2320
3.9871039390563965,2288
3.988485813140869,2269
3.9894909858703613,2269
3.990461826324463,2250
3.9913368225097656,2146
3.992332696914673,2007
3.993320941925049,2010
3.994290828704834,2088
3.9952657222747803,2112
3.9962470531463623,2211
3.997241735458374,2466
3.998241662979126,2466
3.9991238117218018,2394
4.000115871429443,2344
4.001088857650757,2327
4.002054929733276,2335
4.0030357837677,2322
4.004032850265503,2322
4.0054168701171875,2311
4.006403684616089,2290
4.007378816604614,2251
4.008263826370239,2222
4.009248971939087,2132
4.010251998901367,2147
4.011213779449463,2100
4.012200832366943,2172
4.01317286491394,2369
4.014149904251099,2369
4.015060901641846,2394
4.016059875488281,2337
4.017033815383911,2345
4.018017053604126,2313
4.018992900848389,2308
4.019962787628174,2308
4.020953893661499,2281
4.022336006164551,2261
4.02332067489624,2218
4.024295806884766,2218
4.025194883346558,2089
4.026157855987549,2038
4.027171850204468,1924
4.028138875961304,1990
4.029124736785889,2067
4.030088901519775,2067
4.031086683273315,2133
4.031986951828003,2095
4.032985687255859,2158
4.0339577198028564,2098
4.034937858581543,2078
4.035943984985352,2062
4.0369086265563965,1984
4.0382609367370605,1955
4.039287805557251,1867
4.0402586460113525,1867
4.041155815124512,1779
4.042122840881348,1666
4.0430967807769775,1486
4.044081926345825,1484
4.0450708866119385,1523
4.046044826507568,1523
4.047025918960571,1580
4.047997951507568,1565
4.04889988899231,1697
4.049868822097778,1587
4.050879001617432,1500
4.0518457889556885,1425
4.052820920944214,1384
4.0542097091674805,1339
4.055212736129761,1232
4.05619478225708,1232
4.05716872215271,1169
4.058065891265869,1048
4.059043884277344,883
4.06001877784729,850
4.061002016067505,886
4.0619988441467285,886
4.062970876693726,961
4.063948631286621,1130
4.064926862716675,1130
4.065816879272461,1045
4.066808700561523,969
4.0678017139434814,920
4.068776845932007,904
4.069764852523804,860
4.071142911911011,779
4.072121858596802,779
4.073092699050903,749
4.074015855789185,686
4.0749897956848145,641
4.075968980789185,583
4.076940059661865,584
4.077923774719238,584
4.0789220333099365,673
4.079912900924683,822
4.080883979797363,822
4.081783771514893,813
4.082745790481567,746
4.083734035491943,730
4.084707736968994,688
4.085714817047119,674
4.0866827964782715,674
4.088068723678589,645
4.089057683944702,627
4.0899457931518555,592
4.090942859649658,599
4.091916799545288,539
4.092902898788452,515
4.0938708782196045,421
4.094848871231079,571
4.095832824707031,678
4.096827745437622,678
4.097821950912476,718
4.098711013793945,694
4.099673748016357,751
4.1006858348846436,713
4.101693868637085,720
4.102682828903198,720
4.103684902191162,704
4.104992866516113,698
4.1059730052948,692
4.106892824172974,692
4.10786771774292,641
4.108832836151123,606
4.1098268032073975,492
4.1108317375183105,547
4.111790895462036,721
4.112779855728149,721
4.113749980926514,822
4.11473274230957,847
4.115688800811768,1009
4.116618871688843,945
4.11758279800415,912
4.118555784225464,888
4.119556903839111,888
4.120950698852539,882
4.121938943862915,887
4.1228368282318115,887
4.123791694641113,879
4.124756813049316,796
4.1257710456848145,681
4.1267409324646,695
4.127719879150391,786
4.128716707229614,786
4.129685878753662,904
4.130583763122559,1005
4.131570816040039,1207
4.13254976272583,1159
4.133559703826904,1126
4.134516954421997,1114
4.13557505607605,1149
4.1365439891815186,1137
4.137544870376587,1124
4.138523817062378,1121
4.139480829238892,1127
4.140474796295166,1127
4.141855955123901,1057
4.142828702926636,1066
4.143828868865967,1116
4.14480996131897,1116
4.145699739456177,1193
4.14668083190918,1320
4.147676944732666,1489
4.14867091178894,1508
4.149711847305298,1447
4.150633811950684,1447
4.1516008377075195,1409
4.1524858474731445,1396
4.153467893600464,1395
4.154436826705933,1365
4.155437707901001,1365
4.156437873840332,1375
4.157422780990601,1355
4.158791780471802,1334
4.159761905670166,1275
4.160753965377808,1275
4.161743879318237,1365
4.162682771682739,1440
4.163606882095337,1510
4.1645917892456055,1622
4.165560722351074,1610
4.166574716567993,1610
4.167550802230835,1569
4.1685240268707275,1595
4.169423818588257,1595
4.170393705368042,1575
4.171366930007935,1562
4.172361850738525,1547
4.173343896865845,1552
4.174309730529785,1395
4.175699949264526,1334
4.1766839027404785,1334
4.177584886550903,1433
4.178565740585327,1530
4.179543733596802,1581
4.180514812469482,1729
4.181496858596802,1795
4.182477712631226,1795
4.183456897735596,1720
4.18445897102356,1701
4.185435771942139,1701
4.186326026916504,1708
4.187303781509399,1689
4.188280820846558,1663
4.189272880554199,1679
4.190400838851929,1662
4.19130802154541,1685
4.192274808883667,1590
4.193256855010986,1586
4.194234848022461,1533
4.195222854614258,1654
4.196607828140259,1725
4.197594881057739,1940
4.198568820953369,1940
4.199471712112427,1878
4.200464725494385,1845
4.201433897018433,1825
4.20242977142334,1839
4.203401803970337,1818
4.204370975494385,1818
4.205357789993286,1811
4.206247806549072,1791
4.207239866256714,1806
4.208212852478027,1688
4.209195852279663,1637
4.210172891616821,1529
4.211148023605347,1686
4.212531805038452,1778
4.213523864746094,2020
4.214511871337891,2020
4.215399980545044,1978
4.216379880905151,1925
4.217353820800781,1911
4.218337774276733,1905
4.219331741333008,1899
4.2203147411346436,1899
4.221299886703491,1882
4.2222747802734375,1868
4.223172903060913,1871
4.22413182258606,1854
4.225139856338501,1756
4.226122856140137,1612
4.227085828781128,1635
4.228464841842651,1765
4.229437828063965,1919
4.230445861816406,1919
4.231410980224609,1958
4.2323157787323,1926
4.233295917510986,1961
4.234270811080933,1935
4.235247850418091,1946
4.236243963241577,1946
4.237239837646484,1927
4.238213777542114,1897
4.23910665512085,1897
4.24006986618042,1886
4.241041898727417,1775
4.242051839828491,1644
4.243016958236694,1614
4.24400782585144,1770
4.245382785797119,1903
4.246358871459961,1903
4.247264862060547,2010
4.248250722885132,2004
4.2492218017578125,2101
4.250210762023926,2040
4.25119686126709,2016
4.252171039581299,2016
4.253137826919556,1998
4.254129886627197,1939
4.255022764205933,1939
4.256008863449097,1938
4.256975889205933,1930
4.257969856262207,1932
4.259083032608032,1718
4.260074853897095,1803
4.260982036590576,1765
4.261961936950684,1857
4.262944936752319,1976
4.263924837112427,2114
4.264909744262695,2074
4.266307830810547,2005
4.267281770706177,2002
4.26826286315918,2002
4.269153833389282,2024
4.270126819610596,2012
4.271116733551025,1991
4.272098779678345,1994
4.2730748653411865,2000
4.2740538120269775,2000
4.275044679641724,1913
4.275935888290405,1909
4.2769129276275635,1795
4.277894735336304,1886
4.278881072998047,1979
4.279865741729736,2043
4.280828952789307,2063
4.282221794128418,2011
4.283223628997803,2027
4.284188747406006,2027
4.285095930099487,2062
4.2860589027404785,2077
4.2870447635650635,2086
4.288025856018066,2072
4.289015769958496,2077
4.2900238037109375,2077
4.29099702835083,2034
4.291975975036621,1872
4.2928547859191895,1872
4.293848752975464,1929
4.294828653335571,2016
4.295809030532837,2053
4.296778917312622,2181
4.297757863998413,2305
4.299149751663208,2227
4.300139904022217,2227
4.301117897033691,2200
4.302013874053955,2201
4.302997827529907,2207
4.303966999053955,2176
4.304954767227173,2162
4.305967807769775,2162
4.3069376945495605,2136
4.307908773422241,1931
4.308884859085083,1931
4.309774875640869,1960
4.310774803161621,2038
4.311752796173096,2044
4.312737703323364,2126
4.313711881637573,2269
4.314687967300415,2269
4.316076040267944,2189
4.3170576095581055,2164
4.318052768707275,2205
4.318956613540649,2205
4.3199238777160645,2202
4.320896863937378,2182
4.3218817710876465,2158
4.32287073135376,2165
4.32385778427124,2128
4.324842929840088,2128
4.325822830200195,2092
4.326709985733032,2120
4.327692747116089,2054
4.328690767288208,2117
4.329683780670166,2223
4.330690860748291,2223
4.331689834594727,2385
4.333008766174316,2278
4.333984851837158,2222
4.334971904754639,2222
4.335944890975952,2225
4.336849927902222,2200
4.3378307819366455,2165
4.3388097286224365,2162
4.339776992797852,2160
4.340780019760132,2160
4.341766834259033,2091
4.342739820480347,1976
4.343685865402222,1976
4.344684839248657,2050
4.345600843429565,2124
4.346582889556885,2176
4.347570896148682,2303
4.34853196144104,2300
4.349938869476318,2206
4.3509087562561035,2206
4.351892948150635,2209
4.352879762649536,2195
4.3537797927856445,2179
4.354750871658325,2155
4.355719804763794,2144
4.3567140102386475,2148
4.357681751251221,2085
4.35867977142334,1930
4.359679937362671,1930
4.360560894012451,1971
4.361546993255615,2046
4.362510681152344,2075
4.3634889125823975,2202
4.364487886428833,2288
4.365468740463257,2288
4.366852760314941,2193
4.3678247928619385,2166
4.3688037395477295,2162
4.369723796844482,2163
4.370696783065796,2129
4.371676921844482,2113
4.372678756713867,2104
4.373676061630249,2082
4.374607801437378,1866
4.37560772895813,1866
4.3765869140625,1921
4.377485752105713,1999
4.37845778465271,1995
4.379446744918823,2067
4.380431890487671,2197
4.381441831588745,2197
4.382425785064697,2135
4.383802890777588,2094
4.384779930114746,2121
4.38573694229126,2121
4.386692762374878,2108
4.387681722640991,2088
4.388611793518066,2060
4.389580011367798,2060
4.390564680099487,2004
4.391547918319702,2004
4.39252781867981,1973
4.393505811691284,1962
4.39441990852356,1962
4.395408868789673,2026
4.39638090133667,2137
4.397342920303345,2280
4.398310899734497,2297
4.399321794509888,2237
4.400704860687256,2147
4.401692867279053,2147
4.402709007263184,2138
4.403563022613525,2108
4.40456485748291,2067
4.405524015426636,2066
4.406510829925537,2061
4.407494783401489,2077
4.40846586227417,2014
4.409448862075806,1905
4.410437822341919,1905
4.411345958709717,1987
4.4123148918151855,2060
4.413296937942505,2114
4.414280891418457,2238
4.4152607917785645,2231
4.416240930557251,2231
4.417675018310547,2171
4.418613910675049,2170
4.419588804244995,2151
4.420487880706787,2133
4.421457767486572,2112
4.42245888710022,2102
4.423429727554321,2111
4.424564838409424,1958
4.425466775894165,1928
4.426438808441162,1812
4.427410840988159,1882
4.42842698097229,1980
4.429388761520386,2043
4.430359840393066,2123
4.431349992752075,2276
4.432254791259766,2276
4.4332287311553955,2220
4.434212684631348,2194
4.43521785736084,2178
4.436173677444458,2177
4.43716287612915,2143
4.438554763793945,2139
4.4395599365234375,2139
4.440530776977539,2110
4.441495656967163,2045
4.4423828125,1900
4.443375825881958,1927
4.444353818893433,2004
4.445339918136597,2035
4.446316719055176,2130
4.447301864624023,2331
4.448269844055176,2331
4.449178695678711,2262
4.450147867202759,2228
4.4511518478393555,2209
4.452126979827881,2225
4.453110694885254,2205
4.454088926315308,2205
4.455463886260986,2200
4.456446886062622,2176
4.457436800003052,2009
4.458421945571899,2009
4.45931601524353,1987
4.4602906703948975,2039
4.461273670196533,2030
4.462251901626587,2112
4.463253021240234,2280
4.464220762252808,2280
4.465198755264282,2259
4.466108798980713,2227
4.46708083152771,2240
4.468059778213501,2238
4.469051837921143,2244
4.470041751861572,2250
4.471010684967041,2211
4.472386837005615,2208
4.473379850387573,2207
4.474369764328003,2207
4.475344896316528,2134
4.476241827011108,2140
4.477224826812744,2057
4.478198051452637,2130
4.479189872741699,2219
4.48017692565918,2219
4.4811646938323975,2231
4.4821388721466064,2274
4.4831109046936035,2274
4.484010934829712,2266
4.484994649887085,2293
4.4859819412231445,2314
4.486956834793091,2293
4.487933874130249,2278
4.489332914352417,2266
4.490303993225098,2266
4.491286039352417,2177
4.4922778606414795,2161
4.493183851242065,2035
4.4941487312316895,2110
4.495137691497803,2197
4.4960949420928955,2255
4.4970948696136475,2321
4.498098850250244,2412
4.499073028564453,2412
4.49996280670166,2358
4.500942707061768,2346
4.501919984817505,2346
4.5029027462005615,2347
4.50389289855957,2319
4.504872798919678,2291
4.506253719329834,2291
4.507228851318359,2271
4.50820779800415,2217
4.509204864501953,2075
4.510102987289429,2131
4.5110766887664795,2214
4.5120530128479,2244
4.513046979904175,2340
4.514024972915649,2523
4.515021800994873,2523
4.515988826751709,2435
4.51689600944519,2404
4.517875909805298,2387
4.518847942352295,2402
4.519831657409668,2382
4.52082371711731,2360
4.521792888641357,2354
4.523173809051514,2328
4.524173736572266,2156
4.525137901306152,2156
4.526035785675049,2150
4.527024745941162,2227
4.528007984161377,2224
4.528991937637329,2306
4.529967784881592,2471
4.530945062637329,2471
4.531926870346069,2435
4.53292179107666,2402
4.533816814422607,2402
4.534790754318237,2409
4.535773992538452,2414
4.536771774291992,2417
4.5377278327941895,2390
4.538734674453735,2393
4.540117979049683,2375
4.541092872619629,2375
4.542064905166626,2305
4.542963981628418,2312
4.543953895568848,2234
4.544936895370483,2309
4.545922756195068,2396
4.546890020370483,2494
4.547871828079224,2473
4.54885196685791,2468
4.549844980239868,2468
4.550747871398926,2447
4.551727771759033,2460
4.552707672119141,2471
4.553679704666138,2443
4.554802894592285,2431
4.555807828903198,2418
4.556698799133301,2403
4.557686805725098,2286
4.558672904968262,2147
4.559685707092285,2143
4.561022996902466,2289
4.5620269775390625,2423
4.563007831573486,2423
4.5639808177948,2493
4.564879894256592,2475
4.565860748291016,2556
4.566828012466431,2504
4.567826986312866,2495
4.568810939788818,2495
4.569784879684448,2474
4.5707619190216064,2419
4.571746826171875,2419
4.572684049606323,2411
4.573683977127075,2380
4.574610948562622,2347
4.57559871673584,2248
4.576586008071899,2249
4.5779619216918945,2374
4.578950881958008,2374
4.5799479484558105,2436
4.5809197425842285,2632
4.581811904907227,2632
4.582794904708862,2559
4.583760738372803,2509
4.584755897521973,2472
4.585746765136719,2470
4.586721658706665,2416
4.587692022323608,2416
4.588698863983154,2409
4.589577913284302,2390
4.59056282043457,2403
4.591552019119263,2273
4.59253191947937,2224
4.593494892120361,2128
4.594883680343628,2271
4.595864772796631,2354
4.5968546867370605,2579
4.597853899002075,2579
4.598731994628906,2522
4.599711894989014,2470
4.600690841674805,2449
4.601675033569336,2452
4.6026787757873535,2436
4.603684902191162,2436
4.604682922363281,2413
4.605602741241455,2391
4.606497764587402,2394
4.607485771179199,2338
4.608475923538208,2253
4.609451055526733,2112
4.610429763793945,2149
4.611423015594482,2306
4.612799882888794,2480
4.613796710968018,2480
4.614775657653809,2485
4.615687847137451,2438
4.616680860519409,2449
4.617677688598633,2419
4.61860990524292,2420
4.619600772857666,2420
4.620577812194824,2398
4.621565818786621,2367
4.622543811798096,2367
4.623440742492676,2346
4.624417781829834,2226
4.625408887863159,2081
4.626389980316162,2081
4.627354860305786,2156
4.628739833831787,2320
4.629724740982056,2320
4.630710601806641,2393
4.631682634353638,2354
4.63258695602417,2433
4.6335718631744385,2390
4.6345648765563965,2392
4.635531902313232,2392
4.636514663696289,2376
4.637521743774414,2332
4.638484954833984,2332
4.639462947845459,2320
4.6403608322143555,2274
4.641350746154785,2218
4.6423118114471436,2130
4.6433069705963135,2150
4.644300699234009,2124
4.645693778991699,2231
4.646690845489502,2325
4.647677898406982,2357
4.648691892623901,2526
4.649509906768799,2458
4.650500774383545,2409
4.65147066116333,2371
4.652455806732178,2367
4.653443813323975,2309
4.654425859451294,2309
4.655398845672607,2303
4.656386852264404,2277
4.657298803329468,2291
4.6582677364349365,2166
4.6592347621917725,2123
4.660245895385742,2035
4.6612207889556885,2110
4.6626057624816895,2210
4.663581848144531,2450
4.664568662643433,2450
4.665456771850586,2395
4.6664509773254395,2346
4.667417764663696,2327
4.668402910232544,2334
4.669390678405762,2316
4.670362710952759,2316
4.67134165763855,2302
4.672335863113403,2279
4.673308849334717,2279
4.674217939376831,2207
4.675185918807983,2128
4.676174879074097,1993
4.677143812179565,2037
4.6781439781188965,2124
4.679521799087524,2345
4.680506706237793,2345
4.6814658641815186,2354
4.682384729385376,2312
4.683366775512695,2323
4.684356689453125,2299
4.685328722000122,2299
4.686311960220337,2300
4.6872878074646,2282
4.688268661499023,2256
4.689262866973877,2256
4.690243721008301,2228
4.691135883331299,2128
4.692126989364624,1980
4.693091869354248,1983
4.694065809249878,2056
4.6950767040252686,2056
4.696465969085693,2156
4.697425842285156,2216
4.698401689529419,2190
4.699303865432739,2275
4.7003068923950195,2247
4.7012810707092285,2259
4.70225191116333,2273
4.703235864639282,2252
4.70421290397644,2214
4.705204010009766,2214
4.70616602897644,2199
4.707159757614136,2137
4.708057880401611,2064
4.709040880203247,2004
4.710017681121826,2032
4.7109997272491455,2014
4.7119879722595215,2119
4.713359832763672,2191
4.714359760284424,2366
4.715338945388794,2366
4.716247797012329,2300
4.7172160148620605,2264
4.718204975128174,2234
4.719189882278442,2234
4.72015380859375,2197
4.721132755279541,2197
4.722109794616699,2190
4.7230188846588135,2165
4.724029779434204,2180
4.724992990493774,2072
4.725978851318359,2047
4.7269439697265625,1960
4.728091716766357,2077
4.728979825973511,2156
4.729971885681152,2225
4.730945825576782,2318
4.731932878494263,2294
4.732918739318848,2314
4.734288930892944,2264
4.7352728843688965,2263
4.73627495765686,2212
4.7372727394104,2212
4.738141775131226,2197
4.739118814468384,2181
4.740102767944336,2189
4.741081714630127,2066
4.742066860198975,1983
4.743060827255249,1983
4.744048833847046,2077
4.745015621185303,2147
4.745922803878784,2178
4.746891975402832,2300
4.747885704040527,2324
4.74885892868042,2413
4.749846935272217,2341
4.751225709915161,2297
4.752215623855591,2257
4.7531960010528564,2257
4.754168748855591,2222
4.755068778991699,2207
4.75605583190918,2205
4.757028818130493,2192
4.7580406665802,2058
4.759015798568726,2058
4.7599937915802,2142
4.760962724685669,2190
4.761941909790039,2190
4.762844800949097,2244
4.763826847076416,2328
4.764808893203735,2484
4.765780925750732,2409
4.766768932342529,2341
4.768154859542847,2310
4.769129991531372,2310
4.770104646682739,2272
4.771099805831909,2247
4.772004842758179,2217
4.772986888885498,2204
4.773972988128662,2096
4.774931907653809,1972
4.775930881500244,2037
4.776914834976196,2113
4.7778990268707275,2113
4.7788169384002686,2183
4.7797770500183105,2292
4.780742883682251,2457
4.781722784042358,2448
4.782729864120483,2373
4.783690929412842,2335
4.785084962844849,2307
4.786056995391846,2286
4.7870399951934814,2256
4.788027763366699,2215
4.788928985595703,2216
4.789900779724121,2206
4.790893793106079,2222
4.791870832443237,2087
4.792840957641602,2085
4.793842792510986,2085
4.794826984405518,2177
4.795727729797363,2243
4.796695709228516,2320
4.797680854797363,2405
4.798689603805542,2375
4.79967999458313,2375
4.800686836242676,2307
4.802011728286743,2312
4.802994966506958,2275
4.803960800170898,2275
4.804858922958374,2266
4.805854797363281,2253
4.806849002838135,2267
4.807820081710815,2138
4.808793783187866,2063
4.809773683547974,2063
4.810757875442505,2162
4.811738729476929,2280
4.812687873840332,2280
4.813678741455078,2390
4.81460976600647,2405
4.815574884414673,2485
4.816566705703735,2419
4.817725896835327,2391
4.818615674972534,2379
4.819591760635376,2356
4.820567846298218,2321
4.821542739868164,2287
4.822540044784546,2273
4.823926687240601,2231
4.824902772903442,2078
4.825882911682129,2078
4.826777696609497,2140
4.827760934829712,2217
4.828751802444458,2244
4.829726934432983,2353
4.830709934234619,2468
4.831715822219849,2468
4.83275294303894,2387
4.833715915679932,2364
4.834719896316528,2345
4.835566759109497,2355
4.836526870727539,2333
4.837502956390381,2303
4.838481903076172,2302
4.839871883392334,2272
4.840858697891235,2087
4.841875791549683,2087
4.8428428173065186,2124
4.843740940093994,2201
4.844703912734985,2197
4.8456950187683105,2270
4.846688985824585,2401
4.847686767578125,2401
4.848726987838745,2340
4.849638938903809,2294
4.850608825683594,2294
4.851512670516968,2305
4.852497816085815,2296
4.853480815887451,2282
4.854454755783081,2253
4.855409860610962,2240
4.856801748275757,2167
4.857787847518921,2167
4.858773946762085,2133
4.859745025634766,2055
4.860680818557739,2055
4.861689805984497,2098
4.862612009048462,2169
4.863605976104736,2267
4.864588022232056,2318
4.8655617237091064,2142
4.866549968719482,2142
4.8675148487091064,2081
4.868427038192749,2040
4.869414806365967,2005
4.870372772216797,1936
4.871352672576904,1881
