Group ID,Avg Short,Avg Long1,Avg Long2,Emitter
2,2067,2086,2090,2
2,2068,2086,2091,1
2,2076,2094,2099,2
242,2080,2101,2103,1
242,2081,2101,2103,1
242,2081,2102,2105,1
242,2082,2102,2106,1
242,2084,2104,2106,1
242,2084,2104,2107,1
242,2085,2103,2108,1
242,2085,2103,2108,1
242,2083,2103,2108,1
242,2084,2103,2107,1
242,2084,2105,2109,1
242,2087,2106,2110,1
242,2090,2109,2111,1
242,2090,2109,2112,1
242,2090,2108,2112,1
242,2087,2108,2108,1
242,2087,2100,2105,1
242,2084,2099,2103,1
242,2086,2100,2104,1
242,2085,2101,2105,1
242,2085,2102,2106,1
242,2085,2102,2107,1
242,2086,2103,2107,1
242,2086,2103,2108,1
242,2086,2101,2107,1
242,2084,2100,2106,1
242,2086,2101,2107,1
242,2086,2103,2109,1
242,2089,2105,2110,1
242,2090,2105,2112,1
242,2090,2108,2112,1
242,2089,2106,2112,1
242,2086,2106,2109,1
242,2082,2102,2106,1
242,2081,2100,2104,1
242,2085,2101,2105,1
242,2085,2103,2105,1
242,2085,2103,2105,1
242,2085,2104,2106,1
242,2085,2104,2107,1
242,2086,2106,2107,1
242,2084,2104,2106,1
242,2084,2103,2105,1
242,2085,2103,2108,1
242,2085,2107,2110,1
242,2089,2108,2110,1
242,2090,2110,2111,1
242,2090,2110,2111,1
242,2090,2106,2111,1
242,2083,2105,2108,1
242,2083,2101,2108,1
242,2083,2101,2105,1
242,2083,2102,2106,1
242,2085,2102,2106,1
242,2085,2103,2106,1
242,2084,2103,2107,1
242,2085,2102,2108,1
242,2085,2104,2108,1
242,2085,2102,2107,1
242,2084,2103,2107,1
242,2086,2103,2109,1
242,2086,2105,2111,1
242,2088,2106,2112,1
242,2091,2109,2113,1
242,2090,2109,2111,1
242,2086,2109,2111,1
242,2086,2103,2107,1
242,2081,2100,2107,1
242,2082,2100,2106,1
242,2082,2101,2107,1
242,2084,2101,2107,1
242,2086,2103,2107,1
242,2085,2105,2108,1
242,2086,2105,2108,1
242,2085,2105,2108,1
242,2083,2103,2107,1
242,2084,2104,2107,1
242,2087,2106,2109,1
242,2087,2106,2112,1
242,2090,2106,2112,1
242,2090,2109,2113,1
242,2090,2108,2113,1
242,2087,2108,2110,1
242,2084,2104,2107,1
242,2082,2101,2104,1
242,2084,2101,2105,1
242,2084,2102,2106,1
242,2084,2102,2106,1
242,2085,2102,2107,1
242,2085,2104,2108,1
242,2086,2103,2108,1
242,2086,2104,2107,1
242,2083,2102,2107,1
242,2085,2102,2107,1
242,2085,2106,2109,1
242,2088,2107,2109,1
242,2090,2107,2112,1
242,2090,2108,2113,1
242,2091,2106,2113,1
242,2089,2106,2110,1
242,2084,2102,2105,1
242,2081,2102,2105,1
242,2082,2102,2107,1
242,2082,2104,2107,1
242,2083,2103,2107,1
242,2085,2104,2108,1
242,2085,2104,2109,1
242,2085,2103,2109,1
242,2085,2103,2106,1
242,2083,2103,2106,1
242,2085,2103,2108,1
242,2085,2105,2110,1
242,2088,2106,2112,1
242,2091,2109,2113,1
242,2091,2109,2113,1
242,2087,2107,2113,1
242,2083,2107,2107,1
242,2083,2100,2105,1
242,2082,2100,2103,1
242,2084,2102,2105,1
242,2084,2102,2106,1
242,2084,2103,2106,1
242,2084,2103,2108,1
242,2085,2104,2108,1
242,2085,2104,2108,1
242,2085,2102,2107,1
242,2085,2102,2106,1
242,2087,2104,2108,1
242,2087,2105,2110,1
242,2089,2108,2112,1
242,2090,2108,2113,1
242,2090,2109,2112,1
242,2087,2106,2112,1
242,2084,2104,2108,1
242,2081,2101,2106,1
242,2081,2101,2105,1
242,2084,2103,2106,1
242,2084,2103,2106,1
242,2084,2103,2107,1
242,2084,2104,2108,1
242,2085,2104,2108,1
242,2085,2105,2107,1
242,2083,2103,2106,1
242,2084,2103,2106,1
242,2086,2105,2110,1
242,2086,2109,2112,1
242,2090,2109,2112,1
242,2091,2111,2113,1
242,2090,2109,2112,1
242,2088,2104,2111,1
242,2083,2102,2107,1
242,2083,2100,2107,1
242,2084,2100,2107,1
242,2084,2103,2108,1
242,2085,2102,2108,1
242,2086,2103,2108,1
242,2085,2103,2109,1
242,2086,2101,2109,1
242,2084,2103,2108,1
242,2084,2102,2108,1
242,2086,2104,2108,1
242,2088,2104,2111,1
242,2088,2106,2113,1
242,2090,2107,2114,1
242,2091,2109,2114,1
242,2091,2107,2114,1
242,2087,2107,2109,1
242,2087,2100,2106,1
242,2083,2100,2106,1
242,2085,2101,2106,1
242,2085,2102,2107,1
242,2085,2101,2107,1
242,2086,2102,2107,1
242,2086,2104,2108,1
242,2085,2103,2108,1
242,2084,2103,2107,1
242,2082,2103,2108,1
242,2084,2104,2109,1
242,2088,2107,2111,1
242,2088,2108,2114,1
242,2090,2108,2114,1
242,2090,2109,2114,1
242,2089,2106,2114,1
242,2085,2106,2110,1
242,2081,2102,2107,1
242,2081,2101,2105,1
242,2084,2102,2106,1
242,2084,2103,2107,1
242,2085,2103,2107,1
242,2086,2103,2108,1
242,2086,2104,2108,1
242,2085,2103,2108,1
242,2085,2104,2107,1
242,2083,2103,2108,1
242,2086,2103,2109,1
242,2086,2107,2111,1
242,2090,2109,2111,1
242,2092,2109,2113,1
242,2091,2109,2113,1
242,2089,2105,2112,1
242,2086,2104,2108,1
242,2082,2101,2105,1
242,2083,2102,2105,1
242,2084,2102,2107,1
242,2084,2103,2107,1
242,2084,2103,2107,1
242,2086,2105,2108,1
242,2086,2105,2108,1
242,2086,2102,2108,1
242,2086,2102,2106,1
242,2085,2103,2106,1
242,2087,2103,2109,1
242,2087,2106,2112,1
242,2089,2107,2113,1
242,2091,2109,2114,1
242,2090,2109,2111,1
242,2085,2106,2111,1
242,2082,2106,2105,1
242,2082,2101,2105,1
242,2083,2102,2105,1
242,2085,2104,2107,1
242,2084,2103,2107,1
242,2085,2104,2107,1
242,2085,2104,2109,1
242,2085,2104,2109,1
242,2085,2104,2107,1
242,2085,2101,2107,1
242,2086,2102,2107,1
242,2089,2105,2109,1
242,2089,2107,2111,1
242,2091,2108,2112,1
242,2091,2108,2113,1
242,2091,2106,2111,1
242,2086,2102,2111,1
242,2084,2101,2108,1
242,2081,2100,2107,1
242,2083,2101,2107,1
242,2085,2104,2107,1
242,2085,2104,2107,1
242,2086,2104,2108,1
242,2086,2105,2109,1
242,2086,2104,2109,1
242,2086,2104,2108,1
242,2083,2102,2108,1
242,2085,2102,2109,1
242,2087,2105,2112,1
242,2087,2109,2113,1
242,2090,2109,2113,1
242,2090,2110,2113,1
242,2088,2107,2110,1
242,2085,2102,2107,1
242,2083,2101,2105,1
242,2083,2101,2105,1
242,2084,2101,2107,1
242,2084,2103,2107,1
242,2085,2103,2107,1
242,2086,2104,2107,1
242,2086,2104,2107,1
242,2086,2103,2107,1
242,2084,2103,2106,1
242,2084,2104,2107,1
242,2087,2106,2107,1
242,2089,2106,2111,1
242,2089,2107,2112,1
242,2090,2107,2113,1
242,2091,2109,2113,1
242,2088,2105,2113,1
242,2084,2105,2106,1
242,2084,2100,2105,1
242,2084,2101,2105,1
242,2085,2103,2107,1
242,2084,2103,2107,1
242,2085,2102,2107,1
242,2087,2103,2108,1
242,2087,2105,2108,1
242,2085,2104,2108,1
242,2084,2104,2106,1
242,2083,2104,2108,1
242,2086,2105,2109,1
242,2090,2108,2111,1
242,2090,2109,2114,1
242,2091,2109,2114,1
242,2091,2109,2112,1
242,2087,2105,2112,1
242,2084,2105,2105,1
242,2081,2102,2105,1
242,2082,2102,2105,1
242,2085,2104,2107,1
242,2085,2104,2107,1
242,2085,2105,2107,1
242,2085,2105,2109,1
242,2085,2104,2109,1
242,2085,2102,2108,1
242,2086,2102,2107,1
242,2086,2103,2109,1
242,2089,2107,2110,1
242,2089,2107,2113,1
242,2091,2109,2113,1
242,2091,2109,2114,1
242,2091,2108,2112,1
242,2088,2104,2110,1
242,2086,2102,2107,1
242,2083,2101,2107,1
242,2084,2103,2107,1
242,2084,2103,2108,1
242,2084,2103,2108,1
242,2085,2104,2108,1
242,2086,2106,2109,1
242,2085,2104,2108,1
242,2085,2101,2108,1
242,2085,2101,2108,1
242,2087,2103,2108,1
242,2089,2103,2111,1
242,2089,2107,2113,1
242,2091,2107,2114,1
242,2092,2109,2114,1
242,2090,2108,2111,1
242,2087,2101,2109,1
242,2084,2101,2104,1
242,2084,2100,2105,1
242,2087,2102,2105,1
242,2087,2104,2106,1
242,2086,2104,2106,1
242,2087,2103,2107,1
242,2087,2105,2108,1
242,2087,2104,2107,1
242,2084,2104,2107,1
242,2084,2104,2108,1
242,2086,2105,2109,1
242,2089,2107,2111,1
242,2089,2108,2112,1
242,2091,2109,2113,1
242,2090,2109,2112,1
242,2090,2104,2109,1
242,2084,2101,2109,1
242,2083,2100,2106,1
242,2081,2100,2107,1
242,2083,2100,2108,1
242,2085,2102,2108,1
242,2085,2104,2108,1
242,2086,2104,2109,1
242,2086,2105,2109,1
242,2086,2103,2109,1
242,2085,2103,2107,1
242,2084,2103,2108,1
242,2086,2104,2109,1
242,2089,2107,2113,1
242,2089,2110,2113,1
242,2091,2110,2113,1
242,2089,2110,2112,1
242,2086,2107,2109,1
242,2084,2102,2106,1
242,2085,2101,2105,1
242,2084,2101,2108,1
242,2085,2101,2108,1
242,2085,2103,2108,1
242,2086,2104,2108,1
242,2087,2106,2109,1
242,2086,2105,2109,1
242,2086,2102,2109,1
242,2086,2102,2108,1
242,2086,2105,2109,1
242,2089,2107,2109,1
242,2090,2107,2113,1
242,2090,2108,2114,1
242,2091,2108,2114,1
242,2090,2109,2112,1
242,2087,2105,2105,1
242,2081,2105,2105,1
242,2081,2102,2105,1
242,2084,2103,2105,1
242,2084,2103,2108,1
242,2084,2103,2108,1
242,2085,2103,2108,1
242,2087,2105,2109,1
242,2086,2104,2108,1
242,2084,2103,2108,1
242,2085,2103,2108,1
242,2085,2106,2110,1
242,2088,2107,2111,1
242,2091,2109,2113,1
242,2091,2109,2113,1
242,2090,2109,2113,1
242,2090,2107,2110,1
242,2083,2103,2110,1
242,2082,2103,2104,1
242,2080,2102,2105,1
242,2083,2102,2106,1
242,2085,2104,2107,1
242,2084,2104,2108,1
242,2086,2105,2108,1
242,2086,2105,2108,1
242,2086,2103,2108,1
242,2084,2102,2107,1
242,2086,2103,2108,1
242,2086,2105,2110,1
242,2089,2108,2111,1
242,2089,2108,2114,1
242,2091,2109,2114,1
242,2090,2109,2114,1
242,2088,2107,2111,1
242,2085,2103,2108,1
242,2085,2101,2105,1
242,2083,2101,2107,1
242,2085,2102,2107,1
242,2085,2102,2107,1
242,2085,2103,2108,1
242,2086,2103,2109,1
242,2086,2105,2109,1
242,2085,2104,2108,1
242,2084,2102,2107,1
242,2084,2103,2109,1
242,2087,2105,2109,1
242,2089,2105,2112,1
242,2089,2108,2113,1
242,2090,2108,2114,1
242,2090,2110,2113,1
242,2087,2107,2109,1
242,2084,2100,2106,1
242,2084,2100,2104,1
242,2084,2102,2106,1
242,2085,2102,2106,1
242,2086,2104,2107,1
242,2085,2104,2108,1
242,2086,2103,2109,1
242,2086,2104,2109,1
242,2086,2103,2109,1
242,2086,2103,2107,1
242,2086,2104,2109,1
242,2088,2106,2110,1
242,2091,2109,2112,1
242,2091,2109,2113,1
242,2092,2109,2114,1
242,2089,2109,2112,1
242,2089,2103,2108,1
242,2083,2100,2108,1
242,2084,2100,2107,1
242,2084,2102,2108,1
242,2084,2101,2108,1
242,2086,2103,2108,1
242,2086,2105,2108,1
242,2087,2105,2110,1
242,2087,2103,2109,1
242,2086,2102,2108,1
242,2087,2103,2108,1
242,2086,2104,2110,1
242,2089,2108,2111,1
242,2091,2108,2113,1
242,2091,2110,2114,1
242,2092,2109,2114,1
242,2089,2109,2111,1
242,2085,2105,2108,1
242,2083,2102,2105,1
242,2086,2102,2105,1
242,2086,2104,2105,1
242,2086,2104,2107,1
242,2086,2104,2108,1
242,2088,2104,2108,1
242,2088,2106,2109,1
242,2086,2104,2108,1
242,2085,2101,2108,1
242,2086,2102,2109,1
242,2086,2106,2111,1
242,2090,2107,2111,1
242,2091,2110,2113,1
242,2091,2110,2114,1
242,2091,2107,2114,1
242,2088,2107,2111,1
242,2084,2101,2111,1
242,2082,2101,2106,1
242,2082,2101,2107,1
242,2085,2101,2107,1
242,2086,2103,2107,1
242,2085,2103,2108,1
242,2086,2103,2109,1
242,2086,2105,2109,1
242,2086,2103,2107,1
242,2084,2103,2107,1
242,2086,2103,2109,1
242,2086,2105,2111,1
242,2089,2106,2112,1
242,2092,2109,2113,1
242,2092,2109,2113,1
242,2089,2109,2113,1
242,2089,2105,2110,1
242,2083,2102,2110,1
242,2083,2102,2105,1
242,2082,2102,2106,1
242,2084,2102,2107,1
242,2085,2103,2107,1
242,2085,2105,2108,1
242,2086,2105,2108,1
242,2086,2105,2108,1
242,2084,2104,2107,1
242,2085,2103,2106,1
242,2088,2105,2108,1
242,2088,2106,2112,1
242,2091,2106,2112,1
242,2091,2110,2113,1
242,2092,2109,2113,1
242,2090,2109,2112,1
242,2087,2105,2108,1
242,2084,2102,2105,1
242,2086,2101,2105,1
242,2085,2104,2107,1
242,2086,2104,2107,1
242,2086,2104,2108,1
242,2085,2104,2108,1
242,2086,2104,2109,1
242,2086,2105,2109,1
242,2084,2103,2107,1
242,2085,2103,2107,1
242,2085,2106,2109,1
242,2089,2108,2109,1
242,2091,2108,2113,1
242,2091,2109,2114,1
242,2092,2108,2114,1
242,2090,2108,2111,1
242,2086,2104,2104,1
242,2081,2102,2104,1
242,2083,2102,2105,1
242,2083,2104,2106,1
242,2084,2103,2107,1
242,2086,2105,2108,1
242,2086,2105,2109,1
242,2087,2104,2109,1
242,2087,2104,2108,1
242,2084,2103,2108,1
242,2085,2103,2108,1
242,2085,2105,2110,1
242,2088,2107,2111,1
242,2091,2109,2113,1
242,2091,2109,2114,1
242,2090,2108,2114,1
242,2087,2108,2108,1
242,2087,2101,2105,1
242,2085,2100,2104,1
242,2087,2102,2105,1
242,2086,2103,2106,1
242,2086,2104,2107,1
242,2086,2104,2109,1
242,2087,2104,2109,1
242,2086,2104,2109,1
242,2085,2103,2108,1
242,2084,2102,2107,1
242,2087,2103,2108,1
242,2087,2105,2112,1
242,2090,2107,2112,1
242,2091,2107,2114,1
242,2091,2109,2114,1
242,2090,2106,2114,1
242,2087,2106,2111,1
242,2083,2103,2108,1
242,2083,2103,2106,1
242,2083,2103,2108,1
242,2086,2104,2108,1
242,2086,2104,2108,1
242,2085,2104,2109,1
242,2086,2104,2109,1
242,2086,2105,2109,1
242,2085,2104,2107,1
242,2084,2105,2107,1
242,2086,2105,2110,1
242,2086,2108,2112,1
242,2088,2109,2113,1
242,2091,2111,2114,1
242,2091,2111,2114,1
242,2090,2105,2113,1
242,2090,2105,2106,1
242,2083,2102,2106,1
242,2084,2102,2105,1
242,2084,2103,2107,1
242,2085,2102,2108,1
242,2086,2103,2108,1
242,2085,2104,2109,1
242,2086,2104,2110,1
242,2085,2104,2109,1
242,2085,2102,2108,1
242,2085,2103,2108,1
242,2088,2105,2110,1
242,2089,2106,2112,1
242,2091,2109,2113,1
242,2092,2109,2114,1
242,2092,2109,2114,1
242,2089,2109,2111,1
242,2089,2102,2107,1
242,2086,2100,2105,1
242,2087,2100,2105,1
242,2086,2102,2106,1
242,2085,2103,2107,1
242,2085,2103,2108,1
242,2085,2105,2109,1
242,2086,2105,2109,1
242,2086,2105,2108,1
242,2084,2102,2108,1
242,2085,2102,2108,1
242,2085,2105,2112,1
242,2088,2107,2112,1
242,2090,2107,2114,1
242,2090,2109,2114,1
242,2091,2108,2114,1
242,2088,2108,2111,1
242,2084,2104,2108,1
242,2083,2102,2105,1
242,2084,2102,2107,1
242,2084,2104,2108,1
242,2086,2104,2108,1
242,2087,2105,2109,1
242,2087,2105,2110,1
242,2087,2103,2110,1
242,2085,2103,2109,1
242,2085,2103,2109,1
242,2087,2103,2110,1
242,2087,2106,2112,1
242,2089,2108,2113,1
242,2091,2110,2114,1
242,2091,2110,2114,1
242,2091,2106,2114,1
242,2086,2106,2108,1
242,2086,2101,2106,1
242,2084,2102,2106,1
242,2086,2103,2107,1
242,2086,2103,2108,1
242,2086,2102,2108,1
242,2088,2104,2109,1
242,2088,2106,2109,1
242,2087,2106,2109,1
242,2087,2103,2108,1
242,2086,2103,2107,1
242,2088,2105,2108,1
242,2088,2106,2110,1
242,2090,2109,2112,1
242,2091,2109,2114,1
242,2091,2110,2113,1
242,2088,2107,2113,1
242,2085,2105,2109,1
242,2082,2102,2107,1
242,2083,2102,2106,1
242,2085,2104,2107,1
242,2085,2104,2107,1
242,2085,2104,2108,1
242,2085,2105,2109,1
242,2086,2105,2109,1
242,2086,2106,2109,1
242,2084,2104,2108,1
242,2085,2103,2107,1
242,2087,2105,2111,1
242,2087,2109,2113,1
242,2090,2110,2113,1
242,2091,2111,2114,1
242,2090,2110,2113,1
242,2088,2105,2111,1
242,2083,2103,2108,1
242,2083,2101,2108,1
242,2084,2101,2107,1
242,2084,2104,2108,1
242,2085,2103,2108,1
242,2086,2104,2108,1
242,2086,2105,2109,1
242,2087,2104,2109,1
242,2086,2104,2109,1
242,2086,2103,2109,1
242,2087,2104,2109,1
242,2090,2106,2111,1
242,2090,2108,2112,1
242,2091,2108,2113,1
242,2092,2110,2114,1
242,2092,2108,2114,1
242,2088,2108,2110,1
242,2088,2100,2107,1
242,2085,2099,2105,1
242,2086,2101,2106,1
242,2086,2102,2106,1
242,2087,2103,2106,1
242,2087,2103,2108,1
242,2087,2105,2109,1
242,2088,2105,2109,1
242,2087,2105,2108,1
242,2084,2104,2109,1
242,2086,2104,2109,1
242,2091,2107,2111,1
242,2091,2110,2111,1
242,2092,2110,2114,1
242,2092,2111,2114,1
242,2091,2108,2114,1
242,2088,2107,2110,1
242,2084,2103,2107,1
242,2083,2103,2105,1
242,2084,2103,2108,1
242,2084,2105,2108,1
242,2085,2105,2108,1
242,2086,2106,2108,1
242,2086,2106,2108,1
242,2086,2104,2108,1
242,2084,2104,2107,1
242,2084,2105,2107,1
242,2086,2105,2110,1
242,2086,2108,2112,1
242,2091,2109,2112,1
242,2093,2111,2113,1
242,2092,2110,2113,1
242,2090,2105,2112,1
242,2086,2105,2106,1
242,2086,2100,2105,1
242,2084,2101,2105,1
242,2086,2103,2107,1
242,2085,2103,2108,1
242,2085,2102,2109,1
242,2087,2104,2109,1
242,2087,2105,2109,1
242,2086,2105,2109,1
242,2086,2103,2108,1
242,2087,2104,2108,1
242,2089,2106,2109,1
242,2089,2107,2111,1
242,2091,2110,2113,1
242,2091,2110,2114,1
242,2091,2109,2113,1
242,2088,2106,2113,1
242,2085,2104,2109,1
242,2082,2101,2108,1
242,2084,2101,2107,1
242,2086,2104,2108,1
242,2086,2104,2108,1
242,2086,2104,2108,1
242,2086,2106,2109,1
242,2087,2105,2109,1
242,2087,2106,2109,1
242,2085,2104,2109,1
242,2086,2106,2109,1
242,2088,2106,2112,1
242,2088,2109,2114,1
242,2091,2110,2114,1
242,2092,2111,2114,1
242,2091,2109,2112,1
242,2089,2104,2111,1
242,2083,2103,2108,1
242,2083,2102,2108,1
242,2086,2102,2108,1
242,2086,2104,2108,1
242,2086,2104,2108,1
242,2088,2105,2108,1
242,2087,2105,2109,1
242,2087,2104,2109,1
242,2085,2104,2108,1
242,2085,2104,2108,1
242,2088,2105,2108,1
242,2090,2107,2110,1
242,2090,2108,2112,1
242,2091,2108,2113,1
242,2091,2110,2113,1
242,2091,2107,2113,1
242,2087,2107,2108,1
242,2087,2101,2106,1
242,2085,2101,2105,1
242,2087,2103,2106,1
242,2086,2103,2107,1
242,2086,2104,2107,1
242,2086,2104,2108,1
242,2086,2106,2108,1
242,2086,2105,2108,1
242,2086,2105,2107,1
242,2084,2105,2108,1
242,2087,2105,2109,1
242,2092,2108,2111,1
242,2092,2110,2111,1
242,2092,2110,2114,1
242,2092,2110,2114,1
242,2090,2107,2113,1
242,2087,2105,2110,1
242,2083,2101,2108,1
242,2083,2103,2106,1
242,2084,2103,2108,1
242,2084,2104,2108,1
242,2085,2104,2108,1
242,2087,2106,2109,1
242,2087,2105,2109,1
242,2086,2102,2109,1
242,2085,2103,2108,1
242,2085,2105,2108,1
242,2087,2105,2111,1
242,2087,2108,2113,1
242,2089,2109,2114,1
242,2091,2111,2115,1
242,2091,2109,2114,1
242,2089,2103,2113,1
242,2083,2103,2109,1
242,2083,2100,2108,1
242,2084,2102,2108,1
242,2085,2104,2108,1
242,2085,2104,2108,1
242,2086,2104,2108,1
242,2088,2106,2109,1
242,2088,2106,2109,1
242,2086,2106,2109,1
242,2086,2103,2108,1
242,2088,2105,2108,1
242,2090,2107,2110,1
242,2090,2108,2112,1
242,2092,2110,2113,1
242,2092,2110,2115,1
242,2092,2108,2112,1
242,2086,2103,2112,1
242,2084,2102,2109,1
242,2082,2101,2109,1
242,2084,2101,2109,1
242,2086,2104,2109,1
242,2086,2104,2109,1
242,2087,2104,2109,1
242,2087,2106,2110,1
242,2087,2105,2111,1
242,2086,2106,2110,1
242,2084,2104,2110,1
242,2086,2107,2110,1
242,2089,2107,2112,1
242,2089,2109,2114,1
242,2092,2110,2114,1
242,2092,2111,2114,1
242,2090,2108,2111,1
242,2087,2103,2109,1
242,2084,2102,2107,1
242,2084,2103,2107,1
242,2085,2103,2109,1
242,2085,2104,2109,1
242,2085,2104,2109,1
242,2087,2105,2109,1
242,2087,2105,2109,1
242,2087,2104,2109,1
242,2086,2104,2107,1
242,2086,2105,2108,1
242,2089,2106,2108,1
242,2091,2108,2111,1
242,2091,2109,2113,1
242,2092,2109,2114,1
242,2089,2110,2114,1
242,2089,2106,2114,1
242,2086,2106,2107,1
242,2086,2101,2106,1
242,2086,2101,2105,1
242,2087,2103,2107,1
242,2086,2103,2108,1
242,2086,2102,2108,1
242,2086,2104,2109,1
242,2086,2105,2109,1
242,2085,2104,2109,1
242,2085,2104,2108,1
242,2084,2104,2109,1
242,2087,2105,2110,1
242,2091,2108,2112,1
242,2091,2111,2112,1
242,2091,2111,2115,1
242,2091,2110,2114,1
242,2088,2106,2114,1
242,2085,2104,2110,1
242,2082,2102,2108,1
242,2083,2101,2108,1
242,2084,2103,2109,1
242,2084,2104,2109,1
242,2086,2104,2109,1
242,2087,2106,2110,1
242,2086,2105,2110,1
242,2086,2102,2109,1
242,2087,2102,2108,1
242,2087,2105,2108,1
242,2089,2105,2111,1
242,2089,2109,2113,1
242,2091,2110,2114,1
242,2092,2111,2115,1
242,2091,2109,2113,1
242,2088,2101,2111,1
242,2085,2101,2106,1
242,2085,2100,2106,1
242,2087,2102,2106,1
242,2087,2104,2107,1
242,2086,2104,2107,1
242,2086,2104,2108,1
242,2087,2106,2109,1
242,2087,2106,2109,1
242,2085,2106,2109,1
242,2085,2103,2109,1
242,2086,2105,2109,1
242,2089,2107,2111,1
242,2089,2107,2113,1
242,2091,2109,2114,1
242,2091,2109,2115,1
242,2091,2106,2112,1
242,2084,2103,2112,1
242,2083,2102,2109,1
242,2081,2101,2109,1
242,2084,2101,2109,1
242,2085,2103,2109,1
242,2085,2105,2109,1
242,2086,2105,2109,1
242,2086,2106,2109,1
242,2086,2105,2109,1
242,2085,2105,2108,1
242,2084,2104,2109,1
242,2086,2105,2110,1
242,2090,2107,2112,1
242,2090,2111,2113,1
242,2093,2111,2113,1
242,2092,2111,2113,1
242,2089,2108,2110,1
242,2086,2103,2107,1
242,2086,2102,2105,1
242,2084,2104,2105,1
242,2085,2104,2108,1
242,2085,2104,2108,1
242,2086,2104,2108,1
242,2088,2105,2109,1
242,2087,2105,2109,1
242,2087,2103,2109,1
242,2086,2103,2108,1
242,2086,2105,2109,1
242,2089,2106,2109,1
242,2091,2106,2114,1
242,2091,2108,2114,1
242,2092,2108,2115,1
242,2091,2110,2114,1
242,2088,2104,2114,1
242,2085,2104,2107,1
242,2085,2101,2106,1
242,2085,2103,2106,1
242,2086,2105,2108,1
242,2085,2105,2108,1
242,2086,2104,2108,1
242,2088,2106,2109,1
242,2088,2106,2109,1
242,2085,2104,2109,1
242,2086,2104,2107,1
242,2085,2105,2109,1
242,2087,2106,2110,1
242,2091,2109,2112,1
242,2091,2110,2114,1
242,2092,2110,2114,1
242,2092,2108,2112,1
242,2087,2104,2112,1
242,2085,2102,2109,1
242,2082,2101,2108,1
242,2083,2101,2108,1
242,2085,2104,2109,1
242,2085,2104,2109,1
242,2086,2105,2109,1
242,2087,2105,2111,1
242,2086,2105,2110,1
242,2085,2103,2109,1
242,2087,2103,2108,1
242,2086,2104,2111,1
242,2089,2104,2111,1
242,2089,2108,2113,1
242,2092,2109,2113,1
242,2092,2109,2113,1
242,2090,2108,2111,1
242,2087,2103,2109,1
242,2083,2101,2106,1
242,2083,2101,2107,1
242,2086,2102,2107,1
242,2086,2102,2108,1
242,2085,2103,2108,1
242,2086,2103,2108,1
242,2088,2105,2109,1
242,2087,2104,2107,1
242,2084,2104,2107,1
242,2084,2104,2108,1
242,2087,2106,2108,1
242,2089,2106,2111,1
242,2089,2107,2113,1
242,2091,2107,2114,1
242,2092,2109,2114,1
242,2089,2105,2111,1
242,2082,2102,2111,1
242,2082,2102,2106,1
242,2082,2102,2107,1
242,2085,2102,2108,1
242,2086,2104,2108,1
242,2085,2104,2109,1
242,2086,2104,2109,1
242,2086,2106,2109,1
242,2085,2105,2109,1
242,2085,2105,2107,1
242,2084,2105,2109,1
242,2087,2106,2110,1
242,2090,2109,2112,1
242,2090,2111,2113,1
242,2092,2111,2113,1
242,2090,2111,2112,1
242,2087,2108,2109,1
242,2084,2104,2106,1
242,2085,2103,2105,1
242,2084,2103,2108,1
242,2085,2103,2108,1
242,2085,2104,2108,1
242,2086,2105,2108,1
242,2087,2105,2109,1
242,2086,2104,2109,1
242,2086,2102,2109,1
242,2088,2102,2108,1
242,2086,2106,2109,1
242,2089,2108,2109,1
242,2091,2108,2114,1
242,2091,2109,2115,1
242,2092,2109,2115,1
242,2090,2110,2113,1
242,2086,2106,2106,1
242,2081,2106,2106,1
242,2081,2103,2106,1
242,2084,2104,2106,1
242,2085,2104,2108,1
242,2084,2104,2108,1
242,2085,2104,2108,1
242,2087,2106,2109,1
242,2087,2105,2108,1
242,2085,2104,2108,1
242,2086,2104,2108,1
242,2086,2107,2110,1
242,2088,2108,2111,1
242,2091,2110,2113,1
242,2091,2110,2114,1
242,2091,2110,2114,1
242,2091,2108,2111,1
242,2084,2104,2111,1
242,2083,2104,2106,1
242,2081,2103,2107,1
242,2084,2103,2108,1
242,2086,2105,2108,1
242,2085,2105,2108,1
242,2087,2106,2108,1
242,2086,2106,2109,1
242,2086,2104,2108,1
242,2085,2103,2107,1
242,2087,2104,2108,1
242,2087,2106,2111,1
242,2090,2109,2113,1
242,2090,2109,2114,1
242,2092,2110,2114,1
242,2091,2110,2114,1
242,2088,2107,2111,1
242,2085,2103,2108,1
242,2085,2102,2106,1
242,2083,2102,2108,1
242,2086,2103,2108,1
242,2086,2103,2108,1
242,2086,2104,2108,1
242,2087,2104,2109,1
242,2088,2105,2109,1
242,2086,2104,2108,1
242,2086,2104,2107,1
242,2086,2104,2109,1
242,2088,2106,2109,1
242,2090,2106,2112,1
242,2090,2108,2113,1
242,2092,2108,2114,1
242,2091,2109,2114,1
242,2088,2106,2107,1
242,2082,2103,2107,1
242,2083,2103,2106,1
242,2083,2104,2107,1
242,2084,2104,2108,1
242,2085,2105,2108,1
242,2084,2105,2108,1
242,2086,2105,2109,1
242,2086,2105,2109,1
242,2084,2104,2109,1
242,2085,2104,2107,1
242,2085,2105,2109,1
242,2088,2106,2111,1
242,2091,2109,2113,1
242,2091,2110,2114,1
242,2092,2109,2115,1
242,2089,2109,2111,1
242,2089,2103,2107,1
242,2083,2101,2107,1
242,2084,2101,2106,1
242,2084,2102,2107,1
242,2085,2102,2108,1
242,2085,2104,2109,1
242,2085,2105,2109,1
242,2086,2105,2110,1
242,2086,2104,2109,1
242,2086,2103,2108,1
242,2087,2103,2108,1
242,2086,2105,2110,1
242,2089,2108,2112,1
242,2090,2108,2114,1
242,2090,2111,2115,1
242,2092,2110,2115,1
242,2089,2110,2113,1
242,2085,2106,2109,1
242,2083,2103,2106,1
242,2083,2103,2107,1
242,2085,2104,2107,1
242,2085,2104,2108,1
242,2085,2103,2108,1
242,2086,2104,2108,1
242,2087,2106,2109,1
242,2086,2105,2108,1
242,2085,2103,2108,1
242,2086,2103,2108,1
242,2086,2107,2110,1
242,2091,2109,2110,1
242,2093,2111,2112,1
242,2092,2110,2113,1
242,2092,2107,2113,1
242,2085,2106,2110,1
242,2085,2101,2110,1
242,2084,2101,2105,1
242,2084,2101,2106,1
242,2085,2102,2107,1
242,2086,2104,2108,1
242,2085,2104,2109,1
242,2087,2105,2109,1
242,2086,2105,2109,1
242,2086,2104,2108,1
242,2084,2104,2108,1
242,2086,2105,2109,1
242,2087,2107,2111,1
242,2090,2107,2112,1
242,2093,2109,2114,1
242,2093,2110,2114,1
242,2090,2110,2113,1
242,2090,2105,2109,1
242,2086,2102,2106,1
242,2086,2101,2105,1
242,2084,2102,2107,1
242,2085,2101,2108,1
242,2085,2103,2108,1
242,2085,2105,2109,1
242,2087,2105,2109,1
242,2087,2106,2109,1
242,2085,2105,2108,1
242,2086,2104,2107,1
242,2089,2106,2109,1
242,2089,2109,2109,1
242,2090,2109,2113,1
242,2090,2111,2114,1
242,2092,2111,2114,1
242,2090,2111,2113,1
242,2086,2107,2109,1
242,2084,2103,2106,1
242,2085,2102,2106,1
242,2085,2104,2107,1
242,2086,2104,2107,1
242,2087,2104,2108,1
242,2085,2105,2109,1
242,2086,2104,2110,1
242,2087,2105,2110,1
242,2085,2103,2110,1
242,2085,2103,2109,1
242,2085,2106,2111,1
242,2089,2108,2111,1
242,2092,2110,2112,1
242,2092,2110,2113,1
242,2092,2108,2113,1
242,2086,2108,2111,1
242,2086,2102,2108,1
242,2082,2101,2108,1
242,2084,2101,2108,1
242,2084,2102,2109,1
242,2085,2102,2109,1
242,2086,2104,2109,1
242,2085,2105,2110,1
242,2085,2105,2110,1
242,2085,2105,2109,1
242,2083,2104,2109,1
242,2085,2104,2109,1
242,2085,2106,2112,1
242,2088,2107,2113,1
242,2091,2110,2114,1
242,2091,2111,2114,1
242,2090,2109,2114,1
242,2087,2109,2109,1
242,2083,2105,2106,1
242,2082,2103,2104,1
242,2085,2103,2106,1
242,2085,2103,2108,1
242,2085,2103,2108,1
242,2085,2105,2109,1
242,2087,2106,2109,1
242,2086,2106,2109,1
242,2085,2104,2108,1
242,2085,2103,2108,1
242,2088,2104,2109,1
242,2088,2105,2113,1
242,2091,2107,2113,1
242,2092,2107,2115,1
242,2092,2109,2115,1
242,2091,2106,2114,1
242,2088,2105,2110,1
242,2083,2102,2105,1
242,2082,2102,2105,1
242,2082,2104,2106,1
242,2084,2104,2106,1
242,2085,2104,2107,1
242,2084,2104,2108,1
242,2086,2104,2109,1
242,2087,2106,2109,1
242,2085,2104,2107,1
242,2085,2104,2107,1
242,2087,2104,2109,1
242,2087,2107,2111,1
242,2089,2108,2112,1
242,2092,2110,2113,1
242,2092,2110,2112,1
242,2087,2110,2112,1
242,2087,2103,2108,1
242,2082,2101,2108,1
242,2083,2101,2106,1
242,2083,2102,2107,1
242,2085,2102,2108,1
242,2087,2103,2108,1
242,2086,2103,2109,1
242,2086,2103,2109,1
242,2085,2103,2109,1
242,2085,2102,2108,1
242,2085,2103,2108,1
242,2088,2105,2110,1
242,2088,2107,2112,1
242,2091,2109,2113,1
242,2091,2109,2114,1
242,2092,2109,2114,1
242,2089,2109,2111,1
242,2085,2105,2108,1
242,2083,2103,2105,1
242,2085,2103,2105,1
242,2085,2103,2108,1
242,2085,2104,2108,1
242,2085,2104,2108,1
242,2085,2105,2109,1
242,2085,2104,2109,1
242,2085,2105,2108,1
242,2083,2103,2108,1
242,2085,2103,2108,1
242,2085,2106,2112,1
242,2089,2108,2112,1
242,2091,2108,2114,1
242,2091,2109,2114,1
242,2091,2107,2114,1
242,2088,2107,2111,1
242,2084,2103,2107,1
242,2081,2103,2105,1
242,2083,2103,2107,1
242,2083,2105,2108,1
242,2084,2104,2108,1
242,2086,2105,2108,1
242,2085,2106,2109,1
242,2085,2103,2109,1
242,2085,2104,2107,1
242,2083,2104,2107,1
242,2085,2104,2108,1
242,2085,2107,2110,1
242,2088,2108,2112,1
242,2091,2110,2113,1
242,2091,2110,2113,1
242,2089,2107,2113,1
242,2085,2107,2107,1
242,2085,2100,2105,1
242,2084,2100,2104,1
242,2086,2102,2106,1
242,2085,2102,2107,1
242,2085,2101,2107,1
242,2085,2103,2109,1
242,2086,2104,2109,1
242,2086,2104,2109,1
242,2086,2102,2108,1
242,2086,2102,2107,1
242,2088,2104,2108,1
242,2088,2106,2111,1
242,2090,2109,2113,1
242,2091,2109,2114,1
242,2091,2109,2113,1
242,2088,2106,2113,1
242,2085,2105,2109,1
242,2082,2102,2106,1
242,2083,2102,2105,1
242,2085,2104,2106,1
242,2085,2104,2106,1
242,2085,2104,2107,1
242,2085,2105,2108,1
242,2087,2104,2108,1
242,2087,2106,2108,1
242,2085,2104,2107,1
242,2085,2103,2107,1
242,2087,2105,2110,1
242,2087,2108,2112,1
242,2091,2109,2112,1
242,2092,2111,2113,1
242,2090,2110,2112,1
242,2089,2105,2110,1
242,2083,2103,2107,1
242,2083,2100,2107,1
242,2084,2100,2106,1
242,2084,2103,2107,1
242,2086,2103,2107,1
242,2086,2104,2108,1
242,2085,2104,2109,1
242,2086,2103,2109,1
242,2085,2104,2109,1
242,2085,2101,2109,1
242,2087,2103,2109,1
242,2089,2103,2111,1
242,2089,2105,2112,1
242,2091,2106,2113,1
242,2093,2109,2113,1
242,2091,2107,2113,1
242,2087,2107,2109,1
242,2087,2101,2106,1
242,2083,2101,2106,1
242,2085,2102,2106,1
242,2084,2103,2107,1
242,2084,2102,2108,1
242,2087,2104,2108,1
242,2087,2106,2109,1
242,2086,2105,2109,1
242,2085,2105,2107,1
242,2083,2104,2107,1
242,2085,2104,2108,1
242,2088,2107,2110,1
242,2089,2108,2113,1
242,2091,2108,2113,1
242,2091,2110,2113,1
242,2089,2108,2113,1
242,2086,2107,2110,1
242,2082,2103,2107,1
242,2082,2102,2105,1
242,2085,2103,2107,1
242,2085,2105,2107,1
242,2085,2105,2107,1
242,2086,2105,2108,1
242,2086,2105,2108,1
242,2086,2103,2108,1
242,2086,2104,2107,1
242,2084,2104,2109,1
242,2087,2104,2109,1
242,2087,2108,2111,1
242,2090,2109,2111,1
242,2092,2109,2114,1
242,2091,2109,2114,1
242,2090,2105,2113,1
242,2087,2104,2109,1
242,2083,2101,2107,1
242,2083,2102,2107,1
242,2084,2102,2109,1
242,2084,2103,2109,1
242,2085,2103,2109,1
242,2087,2105,2109,1
242,2087,2105,2109,1
242,2085,2105,2109,1
242,2085,2103,2108,1
242,2085,2104,2108,1
242,2087,2104,2111,1
242,2087,2106,2113,1
242,2089,2107,2114,1
242,2092,2109,2115,1
242,2091,2109,2112,1
242,2086,2105,2112,1
242,2083,2105,2106,1
242,2083,2100,2105,1
242,2084,2101,2105,1
242,2086,2104,2106,1
242,2085,2104,2107,1
242,2086,2104,2107,1
242,2086,2105,2108,1
242,2086,2105,2108,1
242,2085,2105,2108,1
242,2083,2104,2108,1
242,2085,2104,2108,1
242,2088,2106,2109,1
242,2088,2108,2113,1
242,2091,2109,2113,1
242,2091,2109,2115,1
242,2091,2107,2113,1
242,2088,2103,2110,1
242,2085,2102,2107,1
242,2082,2101,2107,1
242,2084,2104,2107,1
242,2084,2104,2108,1
242,2085,2104,2108,1
242,2086,2104,2108,1
242,2086,2105,2109,1
242,2086,2104,2109,1
242,2086,2105,2108,1
242,2084,2103,2108,1
242,2086,2106,2109,1
242,2088,2106,2112,1
242,2088,2109,2113,1
242,2091,2109,2113,1
242,2091,2111,2113,1
242,2089,2108,2111,1
242,2086,2102,2109,1
242,2086,2101,2104,1
242,2083,2101,2104,1
242,2084,2101,2106,1
242,2084,2103,2106,1
242,2084,2103,2106,1
242,2086,2104,2107,1
242,2086,2105,2108,1
242,2086,2103,2108,1
242,2085,2103,2106,1
242,2085,2103,2107,1
242,2088,2105,2107,1
242,2090,2108,2109,1
242,2090,2109,2111,1
242,2091,2109,2112,1
242,2089,2110,2112,1
242,2089,2106,2112,1
242,2085,2106,2106,1
242,2085,2100,2105,1
242,2084,2101,2104,1
242,2086,2103,2105,1
242,2085,2103,2106,1
242,2085,2104,2106,1
242,2086,2104,2109,1
242,2086,2105,2109,1
242,2085,2104,2109,1
242,2085,2104,2108,1
242,2084,2104,2110,1
242,2087,2105,2111,1
242,2091,2108,2112,1
242,2091,2110,2112,1
242,2091,2110,2113,1
242,2091,2109,2112,1
242,2088,2105,2112,1
242,2085,2104,2108,1
242,2082,2101,2106,1
242,2083,2101,2106,1
242,2083,2103,2108,1
242,2083,2104,2108,1
242,2084,2104,2108,1
242,2085,2104,2109,1
242,2085,2104,2109,1
242,2085,2102,2109,1
242,2086,2102,2108,1
242,2085,2103,2110,1
242,2088,2103,2110,1
242,2088,2107,2112,1
242,2091,2108,2112,1
242,2092,2110,2112,1
242,2091,2109,2110,1
242,2088,2104,2109,1
242,2084,2102,2106,1
242,2084,2101,2106,1
242,2086,2103,2106,1
242,2086,2103,2107,1
242,2085,2103,2107,1
242,2086,2103,2108,1
242,2087,2105,2109,1
242,2086,2104,2109,1
242,2084,2104,2109,1
242,2084,2102,2109,1
242,2087,2104,2109,1
242,2090,2104,2112,1
242,2090,2106,2113,1
242,2091,2107,2113,1
242,2092,2109,2114,1
242,2090,2107,2109,1
242,2084,2104,2109,1
242,2083,2104,2104,1
242,2083,2102,2105,1
242,2084,2102,2106,1
242,2085,2104,2106,1
242,2084,2104,2107,1
242,2085,2104,2108,1
242,2085,2106,2109,1
242,2085,2105,2109,1
242,2083,2105,2107,1
242,2082,2105,2108,1
242,2085,2106,2109,1
242,2089,2108,2111,1
242,2090,2109,2114,1
242,2092,2110,2114,1
242,2090,2110,2114,1
242,2090,2106,2111,1
242,2086,2102,2108,1
242,2085,2101,2106,1
242,2083,2101,2107,1
242,2085,2102,2108,1
242,2085,2102,2108,1
242,2085,2103,2108,1
242,2086,2103,2109,1
242,2086,2103,2109,1
242,2086,2102,2109,1
242,2086,2103,2108,1
242,2084,2103,2110,1
242,2087,2106,2110,1
242,2089,2106,2114,1
242,2089,2109,2114,1
242,2090,2109,2114,1
242,2090,2110,2113,1
242,2088,2106,2110,1
242,2085,2101,2107,1
242,2085,2101,2105,1
242,2084,2102,2105,1
242,2085,2102,2108,1
242,2085,2102,2108,1
242,2085,2103,2108,1
242,2087,2105,2109,1
242,2086,2105,2109,1
242,2085,2105,2109,1
242,2085,2105,2107,1
242,2085,2105,2109,1
242,2089,2107,2109,1
242,2091,2110,2112,1
242,2091,2110,2113,1
242,2091,2108,2114,1
242,2091,2109,2111,1
242,2085,2105,2111,1
242,2082,2105,2105,1
242,2082,2101,2105,1
242,2084,2102,2105,1
242,2085,2104,2106,1
242,2084,2103,2107,1
242,2085,2105,2107,1
242,2085,2105,2109,1
242,2085,2105,2108,1
242,2084,2103,2108,1
242,2086,2104,2108,1
242,2085,2105,2110,1
242,2088,2106,2111,1
242,2091,2109,2112,1
242,2091,2111,2112,1
242,2091,2111,2114,1
242,2091,2108,2111,1
242,2086,2103,2111,1
242,2085,2101,2108,1
242,2082,2100,2108,1
242,2084,2102,2108,1
242,2084,2102,2108,1
242,2084,2104,2109,1
242,2087,2105,2109,1
242,2087,2106,2110,1
242,2085,2104,2109,1
242,2085,2102,2108,1
242,2088,2103,2108,1
242,2088,2106,2108,1
242,2090,2106,2112,1
242,2090,2109,2113,1
242,2091,2109,2114,1
242,2091,2110,2114,1
242,2089,2107,2111,1
242,2086,2101,2108,1
242,2084,2101,2104,1
242,2084,2102,2105,1
242,2086,2103,2105,1
242,2086,2104,2107,1
242,2085,2104,2108,1
242,2087,2103,2108,1
242,2086,2105,2108,1
242,2086,2103,2108,1
242,2085,2103,2106,1
242,2085,2104,2108,1
242,2089,2106,2108,1
242,2091,2108,2110,1
242,2091,2108,2112,1
242,2092,2109,2113,1
242,2089,2109,2112,1
242,2089,2104,2109,1
242,2083,2101,2109,1
242,2083,2101,2107,1
242,2082,2102,2108,1
242,2084,2102,2108,1
242,2085,2104,2108,1
242,2085,2105,2108,1
242,2086,2105,2109,1
242,2086,2105,2109,1
242,2085,2104,2109,1
242,2085,2104,2108,1
242,2084,2104,2109,1
242,2086,2105,2110,1
242,2090,2108,2112,1
242,2090,2110,2113,1
242,2091,2110,2113,1
242,2089,2110,2111,1
242,2086,2106,2107,1
242,2084,2103,2105,1
242,2086,2103,2105,1
242,2085,2103,2108,1
242,2085,2103,2108,1
242,2085,2103,2108,1
242,2086,2103,2108,1
242,2087,2106,2109,1
242,2086,2105,2109,1
242,2085,2102,2108,1
242,2087,2102,2107,1
242,2087,2106,2109,1
242,2090,2108,2109,1
242,2091,2108,2113,1
242,2091,2109,2113,1
242,2091,2107,2114,1
242,2089,2108,2112,1
242,2086,2104,2105,1
242,2082,2104,2105,1
242,2082,2101,2106,1
242,2085,2103,2106,1
242,2085,2105,2107,1
242,2085,2104,2108,1
242,2086,2104,2109,1
242,2086,2106,2109,1
242,2086,2105,2108,1
242,2083,2104,2108,1
242,2085,2104,2108,1
242,2085,2106,2110,1
242,2088,2107,2112,1
242,2091,2110,2113,1
242,2091,2110,2114,1
242,2090,2110,2114,1
242,2090,2107,2111,1
242,2084,2104,2111,1
242,2083,2102,2108,1
242,2082,2101,2108,1
242,2084,2101,2108,1
242,2086,2103,2108,1
242,2085,2104,2108,1
242,2086,2105,2108,1
242,2086,2105,2109,1
242,2086,2103,2108,1
242,2085,2103,2107,1
242,2088,2105,2108,1
242,2088,2106,2111,1
242,2090,2106,2113,1
242,2090,2110,2114,1
242,2092,2110,2114,1
242,2090,2110,2114,1
242,2087,2107,2110,1
242,2085,2103,2107,1
242,2085,2102,2105,1
242,2084,2102,2108,1
242,2085,2103,2108,1
242,2085,2103,2108,1
242,2085,2104,2109,1
242,2086,2104,2110,1
242,2086,2105,2110,1
242,2085,2103,2108,1
242,2085,2104,2106,1
242,2085,2104,2110,1
242,2088,2106,2110,1
242,2091,2106,2114,1
242,2091,2109,2115,1
242,2091,2109,2115,1
242,2090,2110,2114,1
242,2087,2106,2110,1
242,2081,2104,2107,1
242,2082,2104,2106,1
242,2082,2105,2107,1
242,2086,2104,2107,1
242,2087,2105,2108,1
242,2086,2105,2109,1
242,2087,2104,2110,1
242,2087,2105,2109,1
242,2085,2104,2109,1
242,2086,2104,2108,1
242,2086,2105,2110,1
242,2088,2107,2112,1
242,2091,2110,2114,1
242,2091,2110,2115,1
242,2092,2109,2115,1
242,2089,2109,2111,1
242,2089,2102,2108,1
242,2084,2101,2108,1
242,2085,2101,2108,1
242,2085,2102,2109,1
242,2086,2102,2109,1
242,2088,2104,2109,1
242,2088,2106,2109,1
242,2088,2106,2110,1
242,2088,2105,2109,1
242,2085,2103,2109,1
242,2087,2103,2109,1
242,2087,2104,2111,1
242,2089,2105,2112,1
242,2091,2108,2114,1
242,2091,2110,2114,1
242,2092,2108,2114,1
242,2089,2108,2111,1
242,2085,2104,2108,1
242,2084,2102,2106,1
242,2087,2103,2107,1
242,2087,2105,2107,1
242,2087,2105,2107,1
242,2087,2105,2108,1
242,2088,2105,2108,1
242,2088,2107,2109,1
242,2086,2105,2108,1
242,2084,2103,2108,1
242,2088,2104,2109,1
242,2088,2107,2111,1
242,2091,2109,2111,1
242,2092,2109,2114,1
242,2092,2109,2114,1
242,2091,2106,2114,1
242,2088,2106,2111,1
242,2084,2103,2106,1
242,2083,2103,2106,1
242,2083,2104,2107,1
242,2086,2104,2107,1
242,2086,2104,2108,1
242,2085,2104,2109,1
242,2087,2104,2109,1
242,2086,2106,2109,1
242,2086,2104,2108,1
242,2085,2104,2108,1
242,2087,2104,2110,1
242,2087,2106,2112,1
242,2090,2107,2113,1
242,2092,2110,2114,1
242,2092,2110,2113,1
242,2088,2110,2113,1
242,2088,2105,2109,1
242,2083,2103,2109,1
242,2084,2103,2107,1
242,2084,2104,2109,1
242,2085,2104,2109,1
242,2087,2105,2109,1
242,2086,2105,2111,1
242,2087,2105,2111,1
242,2086,2105,2110,1
242,2086,2102,2109,1
242,2086,2103,2108,1
242,2089,2106,2110,1
242,2089,2107,2112,1
242,2091,2110,2114,1
242,2091,2110,2115,1
242,2092,2109,2115,1
242,2089,2109,2112,1
242,2086,2106,2109,1
242,2084,2103,2106,1
242,2086,2103,2106,1
242,2086,2104,2107,1
242,2086,2104,2108,1
242,2087,2104,2109,1
242,2087,2105,2110,1
242,2088,2105,2110,1
242,2088,2106,2110,1
242,2086,2104,2110,1
242,2087,2104,2110,1
242,2087,2106,2113,1
242,2090,2108,2113,1
242,2091,2108,2115,1
242,2091,2110,2115,1
242,2092,2108,2115,1
242,2090,2108,2112,1
242,2086,2104,2109,1
242,2083,2104,2107,1
242,2085,2104,2108,1
242,2085,2106,2108,1
242,2086,2106,2108,1
242,2088,2107,2109,1
242,2088,2107,2110,1
242,2088,2104,2111,1
242,2086,2105,2110,1
242,2086,2104,2110,1
242,2088,2104,2110,1
242,2088,2108,2112,1
242,2090,2110,2114,1
242,2093,2112,2115,1
242,2093,2112,2115,1
242,2093,2108,2115,1
242,2088,2108,2109,1
242,2088,2102,2107,1
242,2085,2103,2107,1
242,2086,2105,2108,1
242,2086,2105,2108,1
242,2087,2105,2108,1
242,2088,2106,2109,1
242,2088,2108,2109,1
242,2088,2108,2109,1
242,2088,2106,2108,1
242,2087,2105,2108,1
242,2090,2107,2109,1
242,2090,2108,2112,1
242,2093,2108,2114,1
242,2093,2110,2116,1
242,2093,2112,2115,1
242,2090,2109,2115,1
242,2087,2109,2109,1
242,2084,2106,2108,1
242,2084,2105,2107,1
242,2087,2107,2108,1
242,2087,2108,2108,1
242,2087,2108,2109,1
242,2087,2107,2111,1
242,2089,2107,2111,1
242,2088,2108,2111,1
242,2086,2106,2109,1
242,2087,2106,2108,1
242,2091,2108,2110,1
242,2091,2111,2112,1
242,2094,2112,2112,1
242,2094,2112,2116,1
242,2093,2112,2115,1
242,2091,2108,2114,1
242,2089,2106,2110,1
242,2086,2104,2108,1
242,2086,2104,2108,1
242,2086,2107,2109,1
242,2087,2107,2109,1
242,2088,2108,2109,1
242,2088,2108,2111,1
242,2089,2106,2111,1
242,2088,2107,2110,1
242,2088,2105,2110,1
242,2089,2107,2110,1
242,2091,2107,2113,1
242,2091,2109,2115,1
242,2093,2110,2116,1
242,2095,2112,2116,1
242,2094,2110,2113,1
242,2089,2110,2113,1
242,2089,2104,2110,1
242,2085,2103,2110,1
242,2086,2103,2110,1
242,2086,2105,2110,1
242,2087,2105,2111,1
242,2090,2106,2111,1
242,2090,2106,2112,1
242,2090,2106,2112,1
242,2089,2106,2110,1
242,2089,2105,2111,1
242,2090,2107,2111,1
242,2093,2110,2113,1
242,2093,2111,2115,1
242,2095,2112,2116,1
242,2095,2112,2117,1
242,2093,2111,2117,1
242,2090,2111,2112,1
242,2086,2108,2110,1
242,2086,2107,2108,1
242,2089,2107,2109,1
242,2089,2107,2110,1
242,2089,2107,2110,1
242,2090,2107,2112,1
242,2090,2109,2112,1
242,2090,2108,2112,1
242,2089,2108,2111,1
242,2087,2106,2112,1
242,2089,2109,2113,1
242,2089,2109,2116,1
242,2093,2111,2116,1
242,2094,2111,2118,1
242,2094,2112,2118,1
242,2093,2109,2117,1
242,2090,2109,2114,1
242,2086,2106,2111,1
242,2085,2107,2110,1
242,2087,2107,2112,1
242,2087,2108,2112,1
242,2089,2108,2112,1
242,2089,2112,2112,2
242,2089,2112,2112,2
242,2089,2112,2112,2
242,2089,2110,2112,2
242,2089,2112,2112,2
242,2089,2115,2112,2
242,2089,2117,2112,2
242,2089,2117,2112,2
242,2089,2117,2112,2
242,2089,2117,2113,2
242,2089,2113,2113,2
242,2088,2111,2110,2
242,2085,2108,2110,2
242,2086,2109,2110,2
242,2086,2109,2112,2
242,2089,2109,2112,2
242,2085,2109,2108,2
242,2085,2102,2107,2
242,2083,2099,2106,2
242,2081,2099,2104,2
242,2078,2096,2102,2
242,2078,2097,2101,2
242,2079,2097,2103,2
242,2079,2101,2105,2
242,2082,2102,2105,2
242,2082,2104,2105,2
242,2081,2102,2104,2
242,2078,2096,2102,2
242,2074,2094,2099,2
242,2074,2093,2099,2
242,2075,2093,2099,2
242,2075,2095,2100,2
242,2077,2095,2100,2
242,2078,2096,2100,2
242,2077,2096,2101,2
242,2077,2094,2101,2
242,2075,2095,2100,2
242,2075,2094,2100,2
242,2078,2096,2100,2
242,2080,2096,2104,2
242,2080,2098,2106,2
242,2083,2098,2106,2
242,2085,2101,2106,2
242,2082,2099,2106,2
242,2078,2099,2101,2
242,2078,2093,2099,2
242,2075,2093,2099,2
242,2077,2094,2100,2
242,2077,2094,2100,2
242,2077,2093,2100,2
242,2079,2095,2101,2
242,2079,2097,2101,2
242,2077,2096,2101,2
242,2076,2096,2099,2
242,2074,2096,2100,2
242,2083,2101,2105,2
242,2090,2107,2111,2
242,2093,2110,2119,2
242,2097,2110,2119,2
242,2097,2115,2120,2
242,2096,2113,2120,2
242,2093,2113,2117,2
242,2090,2110,2115,2
242,2091,2110,2114,2
242,2094,2112,2116,2
242,2094,2113,2117,2
242,2095,2113,2117,2
242,2096,2113,2118,2
242,2096,2113,2118,2
242,2096,2112,2118,2
242,2097,2112,2116,2
242,2095,2114,2116,2
242,2097,2114,2120,2
242,2097,2118,2122,2
242,2101,2119,2122,2
242,2102,2121,2123,2
242,2102,2120,2122,2
242,2100,2115,2122,2
242,2096,2114,2116,2
242,2096,2111,2115,2
242,2096,2112,2115,2
242,2097,2112,2118,2
242,2096,2112,2118,2
242,2097,2112,2118,2
242,2098,2114,2119,2
242,2098,2114,2119,2
242,2096,2114,2118,2
242,2096,2111,2118,2
242,2097,2113,2118,2
242,2100,2116,2120,2
242,2100,2118,2122,2
242,2102,2120,2123,2
242,2102,2120,2125,2
242,2102,2119,2123,2
242,2097,2115,2123,2
242,2095,2113,2119,2
242,2093,2112,2118,2
242,2095,2112,2118,2
242,2095,2114,2118,2
242,2095,2114,2118,2
242,2096,2114,2118,2
242,2096,2116,2118,2
242,2096,2115,2119,2
242,2096,2115,2119,2
242,2094,2114,2119,2
242,2096,2117,2119,2
242,2098,2117,2123,2
242,2098,2120,2125,2
242,2102,2120,2125,2
242,2102,2122,2126,2
242,2101,2119,2123,2
242,2098,2113,2121,2
242,2098,2113,2116,2
242,2095,2113,2116,2
242,2096,2113,2118,2
242,2096,2114,2118,2
242,2097,2114,2118,2
242,2099,2116,2119,2
242,2098,2116,2120,2
242,2097,2116,2120,2
242,2096,2116,2118,2
242,2096,2116,2119,2
242,2098,2117,2120,2
242,2101,2119,2123,2
242,2102,2120,2125,2
242,2104,2121,2126,2
242,2104,2121,2126,2
242,2101,2118,2126,2
242,2098,2118,2120,2
242,2095,2115,2118,2
242,2095,2114,2117,2
242,2098,2116,2119,2
242,2098,2116,2119,2
242,2098,2117,2119,2
242,2099,2117,2121,2
242,2099,2117,2121,2
242,2099,2116,2120,2
242,2099,2116,2119,2
242,2098,2116,2122,2
242,2101,2116,2122,2
242,2101,2120,2125,2
242,2104,2121,2125,2
242,2105,2123,2126,2
242,2104,2122,2125,2
242,2102,2118,2124,2
242,2097,2117,2121,2
242,2097,2114,2120,2
242,2098,2115,2120,2
242,2099,2115,2121,2
242,2098,2115,2121,2
242,2099,2115,2121,2
242,2100,2117,2122,2
242,2100,2118,2122,2
242,2099,2118,2121,2
242,2099,2115,2121,2
242,2100,2116,2121,2
242,2103,2119,2123,2
242,2103,2120,2125,2
242,2105,2123,2126,2
242,2105,2123,2128,2
242,2105,2121,2126,2
242,2100,2117,2126,2
242,2098,2116,2123,2
242,2096,2115,2123,2
242,2098,2115,2122,2
242,2098,2117,2122,2
242,2098,2117,2122,2
242,2099,2117,2122,2
242,2099,2118,2123,2
242,2099,2117,2123,2
242,2099,2118,2122,2
242,2097,2116,2122,2
242,2099,2119,2123,2
242,2102,2119,2127,2
242,2102,2123,2128,2
242,2106,2123,2128,2
242,2106,2125,2128,2
242,2104,2122,2125,2
242,2101,2115,2123,2
242,2101,2115,2119,2
242,2099,2115,2119,2
242,2100,2115,2121,2
242,2100,2116,2121,2
242,2100,2116,2121,2
242,2102,2117,2122,2
242,2102,2118,2122,2
242,2100,2118,2122,2
242,2099,2118,2120,2
242,2099,2118,2122,2
242,2101,2120,2123,2
242,2104,2123,2126,2
242,2104,2124,2128,2
242,2106,2125,2129,2
242,2106,2125,2128,2
242,2103,2122,2128,2
242,2100,2122,2122,2
242,2097,2118,2120,2
242,2097,2118,2119,2
242,2100,2119,2121,2
242,2100,2118,2122,2
242,2100,2118,2122,2
242,2101,2118,2124,2
242,2101,2119,2124,2
242,2101,2118,2124,2
242,2102,2118,2122,2
242,2101,2118,2125,2
242,2104,2118,2125,2
242,2104,2123,2127,2
242,2107,2125,2127,2
242,2108,2125,2130,2
242,2107,2124,2128,2
242,2105,2120,2126,2
242,2100,2118,2123,2
242,2100,2116,2122,2
242,2100,2117,2122,2
242,2100,2117,2124,2
242,2100,2117,2124,2
242,2102,2118,2124,2
242,2104,2120,2125,2
242,2103,2120,2125,2
242,2102,2120,2124,2
242,2102,2117,2124,2
242,2103,2119,2124,2
242,2105,2122,2126,2
242,2106,2123,2128,2
242,2108,2123,2130,2
242,2108,2126,2131,2
242,2108,2124,2129,2
242,2102,2120,2129,2
242,2101,2120,2122,2
242,2098,2119,2122,2
242,2100,2119,2122,2
242,2101,2121,2122,2
242,2101,2121,2122,2
242,2102,2121,2123,2
242,2102,2121,2123,2
242,2102,2120,2124,2
242,2101,2120,2124,2
242,2099,2119,2125,2
242,2102,2123,2125,2
242,2105,2123,2129,2
242,2105,2126,2130,2
242,2108,2127,2130,2
242,2108,2128,2130,2
242,2106,2125,2128,2
242,2103,2120,2125,2
242,2103,2118,2122,2
242,2101,2118,2122,2
242,2102,2118,2124,2
242,2102,2119,2125,2
242,2102,2119,2125,2
242,2104,2121,2126,2
242,2103,2121,2126,2
242,2103,2118,2126,2
242,2102,2118,2124,2
242,2102,2120,2126,2
242,2106,2122,2126,2
242,2109,2125,2128,2
242,2109,2125,2130,2
242,2110,2126,2131,2
242,2110,2126,2130,2
242,2106,2123,2130,2
242,2103,2123,2124,2
242,2099,2120,2123,2
242,2100,2120,2122,2
242,2103,2122,2124,2
242,2103,2121,2125,2
242,2103,2122,2125,2
242,2103,2122,2126,2
242,2103,2121,2126,2
242,2103,2120,2125,2
242,2104,2120,2124,2
242,2103,2121,2126,2
242,2106,2124,2128,2
242,2106,2124,2132,2
242,2109,2126,2132,2
242,2110,2126,2133,2
242,2109,2126,2131,2
242,2107,2122,2129,2
242,2105,2120,2126,2
242,2102,2118,2124,2
242,2103,2119,2124,2
242,2103,2119,2125,2
242,2103,2120,2125,2
242,2104,2120,2125,2
242,2105,2122,2126,2
242,2104,2122,2126,2
242,2102,2122,2126,2
242,2102,2119,2126,2
242,2105,2122,2126,2
242,2108,2125,2129,2
242,2108,2127,2131,2
242,2111,2127,2132,2
242,2110,2129,2132,2
242,2110,2127,2129,2
242,2104,2123,2129,2
242,2103,2123,2124,2
242,2101,2121,2125,2
242,2103,2121,2126,2
242,2105,2123,2126,2
242,2104,2122,2127,2
242,2104,2122,2127,2
242,2104,2124,2127,2
242,2105,2123,2127,2
242,2104,2123,2126,2
242,2103,2121,2127,2
242,2105,2122,2128,2
242,2110,2125,2130,2
242,2110,2129,2131,2
242,2111,2129,2131,2
242,2111,2129,2133,2
242,2108,2126,2130,2
242,2105,2121,2127,2
242,2103,2120,2124,2
242,2103,2121,2124,2
242,2104,2121,2126,2
242,2104,2122,2126,2
242,2105,2122,2126,2
242,2106,2124,2127,2
242,2105,2124,2127,2
242,2105,2121,2127,2
242,2104,2121,2125,2
242,2104,2123,2127,2
242,2109,2125,2127,2
242,2111,2128,2130,2
242,2111,2129,2132,2
242,2112,2128,2133,2
242,2112,2130,2132,2
242,2108,2127,2132,2
242,2105,2127,2125,2
242,2105,2121,2124,2
242,2105,2121,2124,2
242,2106,2123,2125,2
242,2105,2123,2126,2
242,2105,2123,2127,2
242,2106,2123,2129,2
242,2106,2123,2129,2
242,2105,2122,2129,2
242,2106,2122,2128,2
242,2105,2123,2129,2
242,2107,2124,2131,2
242,2107,2127,2134,2
242,2110,2129,2134,2
242,2111,2129,2135,2
242,2111,2128,2133,2
242,2108,2124,2131,2
242,2106,2122,2128,2
242,2103,2121,2127,2
242,2105,2122,2126,2
242,2105,2122,2128,2
242,2105,2123,2128,2
242,2106,2124,2128,2
242,2107,2126,2128,2
242,2106,2124,2128,2
242,2106,2122,2127,2
242,2106,2122,2127,2
242,2108,2125,2127,2
242,2110,2125,2132,2
242,2110,2127,2134,2
242,2112,2127,2135,2
242,2113,2130,2135,2
242,2111,2128,2131,2
242,2104,2124,2131,2
242,2103,2124,2126,2
242,2103,2122,2126,2
242,2104,2122,2127,2
242,2106,2124,2127,2
242,2105,2124,2127,2
242,2107,2125,2128,2
242,2107,2125,2129,2
242,2106,2124,2129,2
242,2105,2124,2128,2
242,2103,2124,2129,2
242,2106,2126,2130,2
242,2110,2129,2132,2
242,2111,2132,2134,2
242,2113,2132,2134,2
242,2112,2132,2134,2
242,2112,2127,2131,2
242,2108,2123,2128,2
242,2108,2122,2127,2
242,2106,2122,2128,2
242,2106,2122,2128,2
242,2106,2124,2128,2
242,2107,2125,2128,2
242,2108,2126,2129,2
242,2107,2125,2129,2
242,2107,2122,2129,2
242,2106,2123,2128,2
242,2106,2125,2130,2
242,2110,2127,2130,2
242,2112,2127,2135,2
242,2112,2129,2136,2
242,2113,2129,2137,2
242,2112,2130,2136,2
242,2109,2126,2136,2
242,2106,2126,2128,2
242,2106,2122,2127,2
242,2107,2123,2127,2
242,2108,2125,2128,2
242,2107,2125,2129,2
242,2107,2124,2129,2
242,2107,2126,2131,2
242,2107,2126,2130,2
242,2106,2125,2130,2
242,2106,2125,2129,2
242,2106,2125,2131,2
242,2110,2126,2132,2
242,2114,2129,2134,2
242,2114,2132,2134,2
242,2114,2132,2136,2
242,2114,2131,2134,2
242,2111,2127,2133,2
242,2108,2125,2130,2
242,2105,2123,2129,2
242,2106,2124,2129,2
242,2106,2124,2129,2
242,2106,2124,2129,2
242,2108,2125,2129,2
242,2108,2127,2130,2
242,2107,2126,2130,2
242,2107,2124,2130,2
242,2107,2124,2130,2
242,2109,2127,2130,2
242,2111,2127,2134,2
242,2111,2130,2136,2
242,2113,2130,2137,2
242,2114,2132,2137,2
242,2113,2130,2135,2
242,2106,2126,2132,2
242,2105,2126,2127,2
242,2105,2123,2128,2
242,2108,2124,2128,2
242,2108,2125,2128,2
242,2107,2125,2128,2
242,2108,2126,2129,2
242,2108,2126,2129,2
242,2108,2125,2129,2
242,2107,2125,2128,2
242,2105,2125,2129,2
242,2108,2127,2130,2
242,2112,2130,2133,2
242,2112,2131,2137,2
242,2115,2132,2137,2
242,2114,2132,2138,2
242,2114,2127,2134,2
242,2110,2123,2131,2
242,2109,2122,2129,2
242,2107,2122,2129,2
242,2107,2122,2130,2
242,2107,2124,2130,2
242,2107,2125,2130,2
242,2109,2125,2132,2
242,2109,2125,2132,2
242,2109,2124,2132,2
242,2109,2124,2130,2
242,2107,2127,2132,2
242,2111,2130,2132,2
242,2113,2130,2136,2
242,2113,2132,2137,2
242,2115,2132,2138,2
242,2115,2133,2137,2
242,2112,2128,2130,2
242,2105,2128,2130,2
242,2105,2123,2128,2
242,2106,2124,2128,2
242,2107,2125,2129,2
242,2106,2125,2129,2
242,2107,2124,2129,2
242,2108,2126,2131,2
242,2108,2126,2131,2
242,2107,2125,2131,2
242,2108,2125,2131,2
242,2108,2126,2133,2
242,2111,2127,2134,2
242,2115,2130,2136,2
242,2115,2133,2136,2
242,2115,2133,2137,2
242,2115,2131,2135,2
242,2112,2127,2133,2
242,2110,2125,2130,2
242,2107,2124,2130,2
242,2108,2126,2130,2
242,2108,2126,2130,2
242,2108,2126,2130,2
242,2109,2127,2130,2
242,2110,2129,2131,2
242,2109,2127,2130,2
242,2108,2124,2130,2
242,2108,2124,2130,2
242,2110,2126,2130,2
242,2112,2126,2134,2
242,2112,2130,2136,2
242,2114,2131,2137,2
242,2115,2133,2137,2
242,2113,2131,2132,2
242,2106,2127,2132,2
242,2105,2127,2127,2
242,2105,2124,2128,2
242,2106,2124,2129,2
242,2107,2126,2129,2
242,2107,2126,2130,2
242,2109,2126,2130,2
242,2109,2127,2130,2
242,2109,2126,2130,2
242,2108,2126,2129,2
242,2106,2126,2131,2
242,2109,2128,2132,2
242,2113,2131,2134,2
242,2114,2133,2136,2
242,2116,2133,2136,2
242,2114,2133,2137,2
242,2112,2130,2133,2
242,2109,2126,2130,2
242,2109,2125,2128,2
242,2107,2125,2130,2
242,2109,2125,2130,2
242,2109,2125,2130,2
242,2109,2125,2130,2
242,2110,2127,2131,2
242,2110,2127,2131,2
242,2110,2125,2131,2
242,2108,2125,2130,2
242,2108,2127,2132,2
242,2112,2129,2132,2
242,2114,2129,2137,2
242,2114,2131,2138,2
242,2115,2131,2138,2
242,2115,2132,2137,2
242,2112,2127,2137,2
242,2109,2127,2129,2
242,2109,2124,2129,2
242,2109,2125,2129,2
242,2109,2127,2130,2
242,2109,2126,2130,2
242,2110,2126,2131,2
242,2110,2128,2133,2
242,2110,2128,2132,2
242,2108,2126,2132,2
242,2109,2126,2131,2
242,2109,2127,2133,2
242,2112,2129,2135,2
242,2116,2132,2137,2
242,2116,2135,2137,2
242,2116,2135,2138,2
242,2116,2133,2136,2
242,2110,2128,2136,2
242,2108,2126,2132,2
242,2106,2124,2131,2
242,2107,2126,2131,2
242,2108,2126,2131,2
242,2108,2126,2131,2
242,2110,2127,2131,2
242,2110,2129,2132,2
242,2109,2128,2131,2
242,2108,2126,2131,2
242,2111,2126,2131,2
242,2111,2130,2131,2
242,2113,2130,2136,2
242,2113,2134,2137,2
242,2115,2134,2138,2
242,2116,2135,2138,2
242,2115,2132,2135,2
242,2112,2125,2132,2
242,2109,2125,2128,2
242,2109,2125,2129,2
242,2111,2126,2129,2
242,2111,2128,2130,2
242,2110,2128,2131,2
242,2111,2128,2132,2
242,2111,2129,2132,2
242,2110,2128,2132,2
242,2109,2128,2130,2
242,2109,2128,2131,2
242,2111,2129,2133,2
242,2114,2132,2136,2
242,2114,2133,2138,2
242,2116,2134,2139,2
242,2114,2134,2139,2
242,2114,2129,2135,2
242,2110,2126,2132,2
242,2110,2126,2130,2
242,2108,2126,2131,2
242,2109,2127,2131,2
242,2109,2127,2131,2
242,2109,2128,2131,2
242,2110,2128,2133,2
242,2110,2128,2133,2
242,2110,2126,2133,2
242,2110,2127,2131,2
242,2109,2127,2135,2
242,2113,2130,2135,2
242,2115,2130,2138,2
242,2115,2134,2139,2
242,2116,2134,2140,2
242,2115,2135,2138,2
242,2112,2131,2134,2
242,2106,2131,2131,2
242,2106,2126,2130,2
242,2108,2126,2130,2
242,2109,2126,2132,2
242,2109,2126,2132,2
242,2110,2126,2132,2
242,2112,2128,2133,2
242,2111,2129,2132,2
242,2109,2128,2132,2
242,2110,2128,2132,2
242,2110,2131,2134,2
242,2113,2133,2136,2
242,2116,2135,2138,2
242,2116,2135,2140,2
242,2116,2135,2140,2
242,2116,2133,2138,2
242,2111,2129,2138,2
242,2109,2127,2134,2
242,2106,2126,2133,2
242,2107,2126,2133,2
242,2109,2128,2133,2
242,2109,2128,2133,2
242,2111,2129,2133,2
242,2111,2129,2135,2
242,2110,2128,2134,2
242,2110,2126,2133,2
242,2113,2127,2133,2
242,2113,2131,2133,2
242,2115,2131,2138,2
242,2115,2135,2140,2
242,2118,2135,2140,2
242,2118,2136,2140,2
242,2116,2134,2137,2
242,2112,2128,2134,2
242,2110,2126,2129,2
242,2110,2126,2130,2
242,2111,2127,2130,2
242,2111,2129,2131,2
242,2110,2129,2132,2
242,2112,2129,2133,2
242,2112,2130,2133,2
242,2112,2128,2133,2
242,2110,2128,2131,2
242,2110,2129,2133,2
242,2112,2131,2134,2
242,2115,2134,2137,2
242,2116,2135,2139,2
242,2117,2135,2140,2
242,2116,2135,2140,2
242,2116,2131,2136,2
242,2109,2128,2136,2
242,2109,2127,2133,2
242,2108,2127,2134,2
242,2109,2126,2134,2
242,2109,2128,2134,2
242,2110,2129,2134,2
242,2111,2129,2135,2
242,2111,2129,2135,2
242,2111,2127,2134,2
242,2111,2128,2133,2
242,2111,2129,2135,2
242,2115,2132,2136,2
242,2117,2132,2140,2
242,2117,2136,2141,2
242,2118,2136,2141,2
242,2116,2136,2140,2
242,2112,2132,2135,2
242,2110,2127,2132,2
242,2110,2127,2131,2
242,2110,2128,2131,2
242,2110,2128,2133,2
242,2110,2128,2133,2
242,2111,2128,2133,2
242,2113,2130,2134,2
242,2112,2129,2133,2
242,2110,2128,2133,2
242,2111,2128,2133,2
242,2111,2131,2135,2
242,2114,2133,2137,2
242,2117,2136,2139,2
242,2117,2136,2140,2
242,2117,2136,2140,2
242,2117,2134,2137,2
242,2111,2130,2137,2
242,2109,2130,2131,2
242,2107,2128,2131,2
242,2109,2128,2131,2
242,2111,2130,2132,2
242,2111,2130,2132,2
242,2111,2131,2132,2
242,2112,2131,2133,2
242,2111,2130,2133,2
242,2111,2128,2132,2
242,2114,2129,2133,2
242,2114,2133,2133,2
242,2116,2133,2138,2
242,2116,2136,2139,2
242,2119,2136,2139,2
242,2118,2138,2140,2
242,2116,2135,2137,2
242,2113,2129,2134,2
242,2111,2128,2130,2
242,2111,2128,2131,2
242,2112,2128,2131,2
242,2112,2129,2132,2
242,2111,2129,2133,2
242,2112,2129,2133,2
242,2112,2130,2133,2
242,2112,2129,2133,2
242,2111,2129,2131,2
242,2111,2130,2133,2
242,2113,2132,2135,2
242,2116,2135,2138,2
242,2117,2136,2140,2
242,2119,2137,2141,2
242,2117,2137,2139,2
242,2117,2132,2135,2
242,2110,2129,2135,2
242,2110,2128,2133,2
242,2109,2128,2134,2
242,2110,2128,2135,2
242,2110,2128,2134,2
242,2111,2129,2134,2
242,2112,2129,2135,2
242,2112,2129,2135,2
242,2112,2128,2134,2
242,2113,2128,2133,2
242,2112,2129,2136,2
242,2116,2132,2136,2
242,2118,2132,2141,2
242,2118,2136,2142,2
242,2119,2135,2142,2
242,2117,2136,2140,2
242,2114,2132,2135,2
242,2108,2132,2132,2
242,2108,2129,2132,2
242,2110,2130,2132,2
242,2111,2130,2133,2
242,2110,2130,2133,2
242,2112,2130,2133,2
242,2114,2132,2134,2
242,2113,2131,2133,2
242,2111,2130,2133,2
242,2112,2130,2133,2
242,2112,2131,2136,2
242,2115,2133,2138,2
242,2118,2136,2140,2
242,2118,2137,2141,2
242,2118,2137,2141,2
242,2118,2135,2138,2
242,2112,2131,2138,2
242,2111,2129,2135,2
242,2109,2128,2135,2
242,2111,2128,2135,2
242,2111,2130,2135,2
242,2111,2130,2135,2
242,2114,2130,2135,2
242,2114,2130,2135,2
242,2112,2129,2134,2
242,2112,2127,2133,2
242,2115,2129,2134,2
242,2115,2133,2134,2
242,2117,2133,2139,2
242,2117,2137,2141,2
242,2118,2137,2142,2
242,2118,2138,2142,2
242,2116,2135,2138,2
242,2113,2128,2135,2
242,2111,2128,2131,2
242,2111,2128,2132,2
242,2112,2128,2133,2
242,2113,2129,2133,2
242,2112,2129,2134,2
242,2113,2130,2135,2
242,2113,2130,2134,2
242,2112,2129,2134,2
242,2112,2129,2132,2
242,2111,2130,2134,2
242,2114,2132,2136,2
242,2118,2135,2138,2
242,2118,2136,2141,2
242,2120,2137,2141,2
242,2117,2137,2139,2
242,2117,2131,2135,2
242,2114,2128,2132,2
242,2114,2128,2131,2
242,2112,2128,2132,2
242,2112,2128,2133,2
242,2112,2130,2133,2
242,2112,2131,2133,2
242,2113,2131,2134,2
242,2113,2130,2134,2
242,2113,2128,2134,2
242,2114,2128,2133,2
242,2113,2132,2136,2
242,2116,2135,2136,2
242,2117,2135,2141,2
242,2117,2137,2142,2
242,2118,2136,2142,2
242,2116,2137,2140,2
242,2113,2132,2132,2
242,2109,2132,2132,2
242,2109,2128,2132,2
242,2111,2129,2132,2
242,2111,2131,2133,2
242,2110,2130,2134,2
242,2111,2130,2134,2
242,2111,2132,2135,2
242,2111,2131,2134,2
242,2110,2129,2134,2
242,2112,2129,2134,2
242,2112,2130,2136,2
242,2115,2132,2138,2
242,2119,2135,2139,2
242,2119,2137,2139,2
242,2119,2137,2141,2
242,2119,2134,2138,2
242,2114,2130,2136,2
242,2112,2128,2133,2
242,2109,2127,2133,2
242,2111,2129,2133,2
242,2111,2129,2133,2
242,2111,2130,2134,2
242,2113,2131,2134,2
242,2114,2133,2134,2
242,2113,2131,2134,2
242,2112,2129,2133,2
242,2112,2129,2135,2
242,2115,2132,2135,2
242,2117,2132,2139,2
242,2117,2135,2140,2
242,2119,2136,2141,2
242,2119,2137,2141,2
242,2117,2134,2135,2
242,2110,2131,2135,2
242,2109,2131,2131,2
242,2109,2130,2132,2
242,2110,2129,2133,2
242,2111,2130,2134,2
242,2110,2130,2134,2
242,2112,2130,2134,2
242,2112,2131,2134,2
242,2111,2130,2134,2
242,2111,2130,2132,2
242,2110,2130,2134,2
242,2114,2132,2136,2
242,2118,2135,2138,2
242,2118,2138,2139,2
242,2120,2138,2139,2
242,2117,2138,2138,2
242,2114,2134,2134,2
242,2112,2130,2131,2
242,2112,2129,2131,2
242,2111,2129,2133,2
242,2111,2129,2133,2
242,2111,2129,2133,2
242,2112,2129,2133,2
242,2113,2131,2134,2
242,2113,2130,2134,2
242,2112,2127,2134,2
242,2112,2127,2133,2
242,2112,2131,2136,2
242,2116,2133,2136,2
242,2118,2136,2139,2
242,2118,2137,2140,2
242,2120,2135,2141,2
242,2115,2136,2139,2
242,2115,2129,2139,2
242,2112,2129,2132,2
242,2112,2127,2132,2
242,2112,2128,2132,2
242,2113,2130,2132,2
242,2112,2130,2132,2
242,2113,2131,2133,2
242,2113,2131,2135,2
242,2113,2130,2134,2
242,2112,2129,2134,2
242,2114,2129,2135,2
242,2114,2130,2137,2
242,2117,2134,2139,2
242,2117,2134,2141,2
242,2119,2135,2141,2
242,2119,2135,2141,2
242,2117,2133,2138,2
242,2114,2129,2135,2
242,2113,2128,2132,2
242,2111,2128,2134,2
242,2112,2129,2134,2
242,2112,2129,2134,2
242,2112,2128,2134,2
242,2113,2128,2135,2
242,2114,2131,2135,2
242,2113,2130,2133,2
242,2110,2130,2133,2
242,2110,2131,2135,2
242,2114,2133,2135,2
242,2117,2136,2137,2
242,2117,2137,2139,2
242,2119,2136,2141,2
242,2117,2137,2141,2
242,2117,2132,2137,2
242,2110,2129,2137,2
242,2110,2129,2132,2
242,2109,2129,2133,2
242,2111,2128,2134,2
242,2112,2129,2134,2
242,2112,2130,2134,2
242,2113,2130,2136,2
242,2113,2130,2135,2
242,2112,2129,2134,2
242,2112,2129,2133,2
242,2111,2130,2135,2
242,2114,2133,2137,2
242,2117,2133,2140,2
242,2117,2137,2141,2
242,2118,2137,2141,2
242,2116,2138,2139,2
242,2113,2133,2135,2
242,2111,2128,2132,2
242,2111,2128,2131,2
242,2110,2129,2131,2
242,2111,2129,2132,2
242,2111,2129,2132,2
242,2112,2129,2132,2
242,2113,2131,2133,2
242,2112,2131,2133,2
242,2110,2129,2133,2
242,2111,2129,2133,2
242,2111,2131,2135,2
242,2114,2133,2137,2
242,2117,2136,2139,2
242,2118,2137,2141,2
242,2118,2137,2141,2
242,2118,2135,2138,2
242,2113,2131,2138,2
242,2111,2129,2135,2
242,2109,2128,2134,2
242,2111,2128,2134,2
242,2112,2130,2134,2
242,2112,2130,2134,2
242,2113,2131,2134,2
242,2113,2131,2135,2
242,2112,2130,2134,2
242,2111,2128,2133,2
242,2114,2129,2134,2
242,2114,2134,2134,2
242,2116,2134,2138,2
242,2116,2137,2140,2
242,2119,2137,2140,2
242,2119,2139,2140,2
242,2117,2136,2137,2
242,2114,2130,2134,2
242,2112,2128,2130,2
242,2112,2128,2132,2
242,2113,2128,2132,2
242,2113,2130,2132,2
242,2110,2127,2129,2
242,2107,2123,2127,2
242,2103,2122,2125,2
242,2103,2118,2125,2
242,2101,2118,2120,2
242,2101,2117,2121,2
242,2102,2119,2122,2
242,2105,2122,2124,2
242,2105,2123,2126,2
242,2106,2123,2127,2
242,2104,2123,2126,2
242,2104,2118,2122,2
242,2098,2115,2122,2
242,2098,2115,2120,2
242,2097,2115,2121,2
242,2098,2115,2121,2
242,2098,2116,2121,2
242,2099,2117,2121,2
242,2100,2117,2122,2
242,2100,2117,2122,2
242,2100,2116,2122,2
242,2100,2116,2121,2
242,2100,2117,2123,2
242,2104,2120,2124,2
242,2106,2120,2128,2
242,2106,2124,2129,2
242,2108,2124,2129,2
242,2105,2125,2127,2
242,2102,2121,2123,2
242,2099,2116,2120,2
242,2099,2116,2119,2
242,2099,2116,2119,2
242,2100,2116,2120,2
242,2099,2116,2120,2
242,2100,2116,2120,2
242,2101,2118,2121,2
242,2100,2118,2121,2
242,2098,2117,2121,2
242,2099,2117,2120,2
242,2099,2119,2123,2
242,2102,2121,2125,2
242,2105,2124,2127,2
242,2106,2125,2128,2
242,2107,2122,2128,2
242,2107,2122,2124,2
242,2100,2118,2124,2
242,2098,2118,2119,2
242,2095,2117,2119,2
242,2097,2117,2119,2
242,2100,2118,2119,2
242,2099,2117,2121,2
242,2100,2118,2121,2
242,2100,2118,2122,2
242,2100,2116,2121,2
242,2099,2115,2120,2
242,2101,2116,2121,2
242,2101,2118,2126,2
242,2105,2118,2126,2
242,2105,2123,2128,2
242,2107,2124,2128,2
242,2107,2124,2128,2
242,2105,2121,2125,2
242,2102,2116,2122,2
242,2098,2114,2120,2
242,2098,2115,2121,2
242,2100,2116,2121,2
242,2100,2116,2121,2
242,2099,2116,2121,2
242,2099,2115,2121,2
242,2099,2116,2120,2
242,2097,2114,2117,2
242,2095,2114,2117,2
242,2095,2114,2118,2
242,2098,2116,2118,2
242,2100,2118,2120,2
242,2100,2118,2121,2
242,2101,2117,2121,2
242,2098,2118,2120,2
242,2098,2113,2117,2
242,2093,2112,2117,2
242,2093,2112,2115,2
242,2092,2112,2115,2
242,2094,2111,2116,2
242,2096,2112,2116,2
242,2096,2113,2116,2
242,2096,2113,2117,2
242,2096,2113,2117,2
242,2094,2112,2117,2
242,2095,2112,2116,2
242,2095,2113,2117,2
242,2097,2113,2118,2
242,2100,2116,2119,2
242,2100,2118,2120,2
242,2100,2117,2120,2
242,2097,2117,2118,2
242,2094,2113,2115,2
242,2092,2110,2113,2
242,2093,2110,2113,2
242,2092,2112,2113,2
242,2092,2112,2114,2
242,2092,2112,2114,2
242,2094,2112,2114,2
242,2095,2114,2116,2
242,2094,2113,2116,2
242,2094,2111,2115,2
242,2095,2111,2115,2
242,2095,2114,2118,2
242,2099,2116,2118,2
242,2100,2116,2121,2
242,2100,2117,2122,2
242,2101,2116,2122,2
242,2099,2116,2119,2
242,2095,2110,2119,2
242,2092,2110,2113,2
242,2092,2109,2113,2
242,2094,2109,2113,2
242,2094,2111,2114,2
242,2093,2111,2114,2
242,2094,2111,2115,2
242,2094,2113,2115,2
242,2094,2112,2114,2
242,2092,2111,2114,2
242,2095,2111,2116,2
242,2096,2113,2118,2
242,2099,2114,2120,2
242,2102,2117,2122,2
242,2102,2119,2122,2
242,2100,2119,2122,2
242,2100,2115,2119,2
242,2093,2111,2119,2
242,2092,2110,2116,2
242,2091,2110,2116,2
242,2093,2110,2116,2
242,2093,2111,2116,2
242,2093,2112,2116,2
242,2095,2112,2116,2
242,2095,2112,2116,2
242,2094,2111,2115,2
242,2094,2111,2114,2
242,2097,2112,2115,2
242,2097,2114,2119,2
242,2100,2114,2119,2
242,2100,2118,2120,2
242,2101,2119,2120,2
242,2100,2120,2120,2
242,2097,2116,2116,2
242,2094,2112,2113,2
242,2094,2111,2112,2
242,2094,2112,2114,2
242,2095,2112,2114,2
242,2095,2112,2115,2
242,2094,2112,2115,2
242,2096,2112,2116,2
242,2096,2113,2116,2
242,2094,2111,2114,2
242,2095,2111,2114,2
242,2095,2112,2116,2
242,2098,2113,2116,2
242,2099,2115,2118,2
242,2099,2115,2119,2
242,2100,2114,2119,2
242,2096,2115,2118,2
242,2096,2111,2115,2
242,2092,2110,2115,2
242,2093,2110,2113,2
242,2093,2111,2114,2
242,2094,2111,2115,2
242,2096,2112,2115,2
242,2095,2112,2116,2
242,2095,2112,2116,2
242,2095,2112,2116,2
242,2093,2111,2116,2
242,2094,2112,2116,2
242,2094,2113,2117,2
242,2096,2113,2117,2
242,2099,2116,2118,2
242,2099,2117,2118,2
242,2097,2116,2118,2
242,2095,2116,2115,2
242,2092,2113,2113,2
242,2091,2111,2112,2
242,2093,2112,2113,2
242,2093,2112,2114,2
242,2094,2112,2114,2
242,2094,2113,2115,2
242,2096,2113,2115,2
242,2096,2115,2115,2
242,2095,2114,2114,2
242,2095,2111,2113,2
242,2097,2112,2114,2
242,2097,2115,2116,2
242,2099,2116,2116,2
242,2099,2116,2119,2
242,2098,2116,2119,2
242,2098,2114,2119,2
242,2096,2114,2117,2
242,2093,2111,2117,2
242,2092,2111,2113,2
242,2092,2111,2114,2
242,2095,2111,2114,2
242,2095,2113,2115,2
242,2094,2112,2115,2
242,2095,2112,2116,2
242,2095,2113,2116,2
242,2095,2112,2115,2
242,2093,2112,2115,2
242,2095,2112,2116,2
242,2095,2113,2117,2
242,2097,2114,2118,2
242,2099,2116,2119,2
242,2099,2116,2119,2
242,2096,2116,2119,2
242,2096,2112,2116,2
242,2091,2110,2116,2
242,2092,2110,2115,2
242,2091,2110,2116,2
242,2093,2110,2116,2
242,2094,2111,2116,2
242,2094,2113,2116,2
242,2096,2113,2116,2
242,2096,2113,2116,2
242,2094,2112,2115,2
242,2095,2112,2114,2
242,2097,2114,2116,2
242,2097,2115,2119,2
242,2099,2115,2119,2
242,2099,2117,2119,2
242,2099,2116,2119,2
242,2097,2116,2118,2
242,2094,2113,2115,2
242,2092,2111,2113,2
242,2094,2111,2113,2
242,2094,2113,2114,2
242,2094,2113,2114,2
242,2095,2113,2115,2
242,2095,2114,2116,2
242,2095,2113,2116,2
242,2095,2114,2116,2
242,2094,2112,2115,2
242,2095,2112,2115,2
242,2095,2115,2117,2
242,2099,2117,2117,2
242,2101,2119,2120,2
242,2101,2119,2121,2
242,2102,2117,2122,2
242,2096,2117,2120,2
242,2096,2110,2116,2
242,2091,2109,2116,2
242,2092,2109,2115,2
242,2092,2110,2116,2
242,2093,2110,2116,2
242,2095,2111,2116,2
242,2095,2112,2117,2
242,2094,2112,2117,2
242,2094,2112,2116,2
242,2092,2111,2116,2
242,2095,2112,2116,2
242,2095,2113,2119,2
242,2098,2114,2120,2
242,2101,2117,2122,2
242,2101,2119,2122,2
242,2099,2117,2122,2
242,2096,2117,2117,2
242,2092,2113,2114,2
242,2091,2111,2113,2
242,2094,2111,2114,2
242,2094,2112,2114,2
242,2094,2112,2114,2
242,2094,2112,2115,2
242,2096,2112,2115,2
242,2095,2113,2115,2
242,2094,2112,2115,2
242,2093,2111,2114,2
242,2096,2112,2115,2
242,2096,2116,2118,2
242,2100,2118,2118,2
242,2101,2118,2123,2
242,2101,2118,2122,2
242,2099,2115,2121,2
242,2096,2114,2118,2
242,2092,2110,2118,2
242,2092,2110,2114,2
242,2092,2111,2115,2
242,2095,2111,2115,2
242,2095,2112,2115,2
242,2094,2112,2116,2
242,2096,2111,2116,2
242,2095,2112,2116,2
242,2095,2110,2115,2
242,2095,2112,2115,2
242,2097,2112,2118,2
242,2098,2115,2121,2
242,2100,2116,2122,2
242,2102,2119,2123,2
242,2102,2118,2121,2
242,2097,2118,2121,2
242,2097,2111,2117,2
242,2091,2110,2117,2
242,2092,2110,2115,2
242,2092,2111,2116,2
242,2093,2110,2116,2
242,2095,2111,2116,2
242,2095,2113,2117,2
242,2096,2113,2117,2
242,2095,2113,2116,2
242,2092,2112,2115,2
242,2094,2112,2115,2
242,2098,2114,2117,2
242,2099,2116,2121,2
242,2101,2116,2121,2
242,2101,2118,2122,2
242,2102,2117,2122,2
242,2099,2117,2120,2
242,2095,2113,2116,2
242,2092,2110,2113,2
242,2094,2110,2113,2
242,2094,2113,2114,2
242,2094,2113,2114,2
242,2095,2113,2114,2
242,2095,2113,2115,2
242,2095,2112,2116,2
242,2095,2112,2116,2
242,2093,2111,2116,2
242,2094,2111,2116,2
242,2094,2115,2118,2
242,2099,2117,2118,2
242,2101,2119,2120,2
242,2101,2119,2121,2
242,2101,2116,2121,2
242,2096,2115,2116,2
242,2096,2109,2114,2
242,2092,2109,2114,2
242,2094,2109,2114,2
242,2094,2109,2114,2
242,2095,2109,2114,2
242,2097,2110,2115,2
242,2097,2112,2115,2
242,2096,2112,2115,2
242,2096,2111,2114,2
242,2094,2111,2114,2
242,2096,2112,2116,2
242,2096,2114,2119,2
242,2099,2117,2121,2
242,2100,2117,2122,2
242,2100,2119,2122,2
242,2097,2116,2122,2
242,2094,2114,2118,2
242,2091,2111,2115,2
242,2092,2109,2113,2
242,2094,2110,2114,2
242,2094,2111,2114,2
242,2094,2111,2114,2
242,2094,2112,2115,2
242,2095,2112,2116,2
242,2095,2113,2116,2
242,2093,2111,2114,2
242,2093,2113,2113,2
242,2095,2113,2117,2
242,2095,2117,2120,2
242,2100,2118,2120,2
242,2101,2120,2121,2
242,2101,2119,2121,2
242,2099,2114,2120,2
242,2093,2112,2117,2
242,2093,2109,2117,2
242,2093,2109,2114,2
242,2093,2111,2115,2
242,2093,2111,2116,2
242,2095,2112,2116,2
242,2094,2112,2117,2
242,2095,2112,2117,2
242,2094,2112,2116,2
242,2094,2110,2115,2
242,2096,2112,2115,2
242,2098,2114,2117,2
242,2099,2116,2120,2
242,2101,2116,2121,2
242,2101,2118,2123,2
242,2100,2117,2123,2
242,2097,2117,2118,2
242,2097,2109,2115,2
242,2095,2108,2113,2
242,2096,2108,2113,2
242,2095,2109,2114,2
242,2095,2109,2114,2
242,2095,2109,2114,2
242,2095,2111,2115,2
242,2095,2111,2115,2
242,2094,2111,2115,2
242,2092,2110,2115,2
242,2094,2111,2115,2
242,2094,2114,2119,2
242,2097,2116,2119,2
242,2099,2116,2122,2
242,2099,2118,2122,2
242,2099,2116,2122,2
242,2096,2115,2119,2
242,2092,2112,2116,2
242,2091,2109,2114,2
242,2092,2109,2114,2
242,2092,2110,2114,2
242,2093,2110,2114,2
242,2094,2111,2115,2
242,2094,2111,2115,2
242,2094,2109,2115,2
242,2094,2110,2114,2
242,2092,2111,2114,2
242,2095,2111,2116,2
242,2095,2115,2119,2
242,2098,2116,2120,2
242,2100,2118,2121,2
242,2100,2118,2121,2
242,2099,2113,2121,2
242,2095,2113,2115,2
242,2095,2108,2113,2
242,2093,2108,2113,2
242,2094,2110,2114,2
242,2093,2110,2114,2
242,2093,2111,2114,2
242,2093,2111,2115,2
242,2095,2111,2115,2
242,2094,2111,2115,2
242,2094,2108,2114,2
242,2094,2109,2113,2
242,2097,2112,2115,2
242,2097,2114,2119,2
242,2099,2115,2119,2
242,2099,2115,2121,2
242,2099,2115,2120,2
242,2097,2112,2118,2
242,2095,2111,2115,2
242,2092,2109,2114,2
242,2093,2111,2114,2
242,2093,2111,2115,2
242,2093,2111,2115,2
242,2094,2111,2115,2
242,2094,2112,2116,2
242,2095,2111,2117,2
242,2096,2112,2116,2
242,2094,2111,2115,2
242,2094,2113,2115,2
242,2096,2113,2118,2
242,2096,2116,2119,2
242,2097,2116,2120,2
242,2098,2117,2120,2
242,2097,2116,2118,2
242,2095,2110,2116,2
242,2095,2110,2113,2
242,2092,2110,2113,2
242,2093,2110,2113,2
242,2093,2111,2114,2
242,2094,2111,2114,2
242,2096,2112,2115,2
242,2096,2112,2116,2
242,2095,2112,2116,2
242,2094,2112,2115,2
242,2094,2111,2115,2
242,2095,2112,2115,2
242,2097,2114,2116,2
242,2097,2115,2118,2
242,2098,2115,2119,2
242,2098,2115,2120,2
242,2097,2114,2120,2
242,2095,2114,2116,2
242,2092,2112,2114,2
242,2092,2111,2113,2
242,2094,2112,2114,2
242,2094,2112,2115,2
242,2094,2112,2115,2
242,2095,2112,2116,2
242,2095,2113,2116,2
242,2095,2112,2116,2
242,2095,2112,2115,2
242,2094,2112,2115,2
242,2096,2113,2116,2
242,2096,2113,2118,2
242,2098,2114,2118,2
242,2098,2114,2119,2
242,2097,2114,2119,2
242,2096,2112,2118,2
242,2095,2112,2116,2
242,2092,2110,2113,2
242,2092,2111,2113,2
242,2093,2111,2115,2
242,2093,2111,2115,2
242,2094,2111,2115,2
242,2095,2112,2116,2
242,2095,2112,2116,2
242,2093,2112,2116,2
242,2093,2111,2115,2
242,2093,2112,2115,2
242,2095,2112,2117,2
242,2095,2114,2118,2
242,2097,2114,2119,2
242,2099,2116,2119,2
242,2098,2115,2117,2
242,2095,2113,2117,2
242,2094,2113,2113,2
242,2094,2110,2113,2
242,2095,2110,2113,2
242,2096,2111,2114,2
242,2095,2111,2115,2
242,2095,2111,2115,2
242,2095,2112,2115,2
242,2095,2112,2115,2
242,2094,2112,2115,2
242,2093,2111,2114,2
242,2094,2111,2114,2
242,2097,2113,2116,2
242,2097,2114,2119,2
242,2098,2115,2119,2
242,2098,2115,2119,2
242,2098,2114,2118,2
242,2096,2111,2117,2
242,2095,2110,2115,2
242,2093,2109,2115,2
242,2093,2109,2115,2
242,2093,2111,2115,2
242,2094,2111,2115,2
242,2095,2111,2115,2
242,2095,2112,2115,2
242,2095,2111,2115,2
242,2096,2112,2115,2
242,2094,2111,2115,2
242,2095,2113,2115,2
242,2097,2113,2118,2
242,2097,2114,2118,2
242,2098,2114,2119,2
242,2099,2115,2119,2
242,2098,2114,2116,2
242,2093,2114,2116,2
242,2093,2111,2115,2
242,2092,2111,2115,2
242,2093,2111,2115,2
242,2093,2111,2115,2
242,2094,2111,2115,2
242,2096,2112,2115,2
242,2096,2113,2115,2
242,2095,2112,2115,2
242,2094,2112,2114,2
242,2093,2112,2115,2
242,2094,2112,2115,2
242,2097,2114,2116,2
242,2097,2114,2118,2
242,2097,2114,2118,2
242,2097,2116,2118,2
242,2095,2114,2118,2
242,2093,2114,2114,2
242,2091,2112,2113,2
242,2091,2111,2113,2
242,2094,2112,2114,2
242,2094,2113,2115,2
242,2094,2113,2115,2
242,2095,2113,2115,2
242,2095,2112,2115,2
242,2094,2111,2115,2
242,2094,2111,2114,2
242,2093,2111,2116,2
242,2095,2111,2116,2
242,2095,2115,2117,2
242,2098,2116,2117,2
242,2099,2116,2118,2
242,2098,2116,2118,2
242,2097,2113,2117,2
242,2096,2112,2115,2
242,2093,2110,2114,2
242,2093,2111,2114,2
242,2094,2111,2116,2
242,2094,2111,2116,2
242,2094,2111,2116,2
242,2095,2113,2116,2
242,2095,2113,2116,2
242,2094,2113,2115,2
242,2094,2111,2115,2
242,2095,2112,2115,2
242,2097,2112,2117,2
242,2097,2113,2118,2
242,2099,2113,2119,2
242,2100,2115,2119,2
242,2099,2115,2117,2
242,2094,2113,2117,2
242,2093,2113,2114,2
242,2093,2110,2114,2
242,2093,2111,2114,2
242,2094,2113,2115,2
242,2094,2113,2115,2
242,2095,2113,2115,2
242,2095,2115,2115,2
242,2095,2114,2115,2
242,2094,2114,2115,2
242,2092,2113,2115,2
242,2094,2113,2115,2
242,2097,2115,2117,2
242,2097,2115,2119,2
242,2098,2115,2119,2
242,2098,2115,2119,2
242,2098,2113,2117,2
242,2095,2110,2116,2
242,2094,2110,2115,2
242,2092,2110,2115,2
242,2093,2112,2115,2
242,2093,2112,2115,2
242,2093,2112,2115,2
242,2094,2112,2116,2
242,2094,2113,2116,2
242,2094,2112,2116,2
242,2094,2112,2115,2
242,2093,2112,2115,2
242,2095,2113,2115,2
242,2096,2113,2117,2
242,2096,2115,2118,2
242,2097,2115,2119,2
242,2097,2116,2119,2
242,2095,2114,2116,2
242,2094,2111,2114,2
242,2094,2111,2113,2
242,2093,2111,2113,2
242,2094,2111,2115,2
242,2094,2111,2115,2
242,2094,2111,2115,2
242,2096,2113,2116,2
242,2095,2113,2116,2
242,2094,2112,2116,2
242,2094,2112,2114,2
242,2094,2112,2115,2
242,2095,2113,2116,2
242,2097,2115,2117,2
242,2097,2115,2118,2
242,2097,2115,2119,2
242,2097,2115,2118,2
242,2095,2113,2118,2
242,2094,2113,2114,2
242,2092,2111,2113,2
242,2093,2111,2113,2
242,2095,2113,2114,2
242,2094,2113,2115,2
242,2094,2113,2115,2
242,2094,2113,2116,2
242,2094,2113,2116,2
242,2093,2112,2116,2
242,2094,2112,2115,2
242,2094,2112,2116,2
242,2096,2114,2117,2
242,2096,2114,2119,2
242,2098,2115,2119,2
242,2098,2115,2119,2
242,2098,2114,2117,2
242,2096,2112,2116,2
242,2095,2111,2114,2
242,2093,2110,2114,2
242,2094,2111,2114,2
242,2094,2111,2114,2
242,2094,2111,2114,2
242,2094,2112,2114,2
242,2095,2113,2115,2
242,2094,2112,2115,2
242,2094,2110,2115,2
242,2094,2110,2115,2
242,2095,2112,2115,2
242,2096,2112,2117,2
242,2096,2114,2118,2
242,2098,2114,2118,2
242,2099,2116,2118,2
242,2098,2115,2116,2
242,2093,2113,2116,2
242,2092,2113,2113,2
242,2092,2111,2113,2
242,2093,2112,2113,2
242,2094,2113,2114,2
242,2094,2112,2115,2
242,2095,2113,2116,2
242,2095,2113,2116,2
242,2095,2113,2116,2
242,2094,2113,2115,2
242,2094,2111,2116,2
242,2095,2112,2116,2
242,2097,2114,2117,2
242,2097,2114,2118,2
242,2098,2115,2119,2
242,2098,2115,2119,2
242,2098,2113,2116,2
242,2095,2111,2114,2
242,2095,2111,2113,2
242,2094,2110,2114,2
242,2095,2112,2115,2
242,2095,2112,2115,2
242,2094,2112,2115,2
242,2095,2112,2116,2
242,2095,2112,2116,2
242,2095,2111,2116,2
242,2095,2111,2115,2
242,2094,2111,2116,2
242,2096,2113,2116,2
242,2097,2113,2118,2
242,2097,2115,2119,2
242,2097,2115,2119,2
242,2097,2116,2118,2
242,2095,2113,2116,2
242,2093,2110,2114,2
242,2094,2110,2114,2
242,2094,2112,2114,2
242,2094,2112,2116,2
242,2094,2111,2116,2
242,2094,2111,2116,2
242,2096,2113,2116,2
242,2096,2113,2115,2
242,2094,2112,2115,2
242,2094,2112,2114,2
242,2094,2114,2115,2
242,2097,2115,2115,2
242,2098,2116,2117,2
242,2098,2116,2118,2
242,2098,2115,2118,2
242,2095,2116,2118,2
242,2095,2112,2118,2
242,2093,2112,2114,2
242,2093,2111,2114,2
242,2094,2112,2114,2
242,2095,2114,2115,2
242,2095,2114,2115,2
242,2096,2113,2115,2
242,2096,2113,2116,2
242,2096,2113,2116,2
242,2094,2112,2116,2
242,2095,2112,2116,2
242,2095,2113,2117,2
242,2097,2113,2118,2
242,2099,2115,2119,2
242,2099,2116,2119,2
242,2098,2116,2119,2
242,2098,2114,2118,2
242,2096,2112,2117,2
242,2096,2112,2115,2
242,2094,2111,2115,2
242,2095,2112,2116,2
242,2095,2112,2116,2
242,2095,2112,2117,2
242,2096,2112,2117,2
242,2096,2114,2117,2
242,2095,2113,2116,2
242,2094,2111,2115,2
242,2094,2112,2116,2
242,2095,2114,2116,2
242,2096,2114,2119,2
242,2096,2115,2120,2
242,2097,2115,2120,2
242,2098,2117,2120,2
242,2096,2115,2118,2
242,2095,2111,2117,2
242,2094,2111,2114,2
242,2094,2111,2115,2
242,2095,2111,2115,2
242,2096,2112,2115,2
242,2095,2112,2116,2
242,2096,2112,2117,2
242,2096,2113,2117,2
242,2096,2111,2117,2
242,2095,2111,2115,2
242,2095,2112,2116,2
242,2096,2113,2117,2
242,2098,2115,2118,2
242,2098,2116,2119,2
242,2099,2116,2120,2
242,2098,2116,2119,2
242,2098,2113,2117,2
242,2094,2111,2117,2
242,2094,2111,2116,2
242,2093,2111,2116,2
242,2094,2110,2116,2
242,2094,2111,2117,2
242,2095,2112,2117,2
242,2096,2112,2118,2
242,2096,2112,2117,2
242,2095,2111,2117,2
242,2096,2111,2116,2
242,2095,2111,2117,2
242,2097,2113,2118,2
242,2098,2113,2120,2
242,2098,2115,2120,2
242,2099,2115,2120,2
242,2098,2116,2119,2
242,2095,2113,2116,2
242,2094,2110,2114,2
242,2094,2111,2114,2
242,2094,2112,2114,2
242,2094,2112,2116,2
242,2094,2112,2116,2
242,2095,2112,2116,2
242,2097,2114,2117,2
242,2096,2114,2117,2
242,2096,2112,2117,2
242,2096,2112,2116,2
242,2096,2114,2117,2
242,2099,2115,2117,2
242,2099,2117,2119,2
242,2099,2117,2120,2
242,2099,2115,2120,2
242,2096,2115,2119,2
242,2096,2112,2119,2
242,2095,2112,2115,2
242,2095,2111,2115,2
242,2095,2111,2116,2
242,2096,2113,2116,2
242,2095,2113,2116,2
242,2096,2114,2117,2
242,2096,2114,2118,2
242,2096,2113,2117,2
242,2094,2113,2117,2
242,2095,2114,2117,2
242,2095,2114,2118,2
242,2097,2114,2119,2
242,2100,2116,2120,2
242,2100,2117,2120,2
242,2099,2117,2120,2
242,2099,2114,2118,2
242,2096,2112,2118,2
242,2096,2112,2116,2
242,2095,2111,2116,2
242,2096,2111,2117,2
242,2096,2112,2117,2
242,2096,2113,2118,2
242,2097,2113,2118,2
242,2097,2114,2118,2
242,2095,2114,2117,2
242,2095,2113,2116,2
242,2097,2113,2117,2
242,2097,2115,2117,2
242,2098,2115,2120,2
242,2098,2117,2121,2
242,2100,2117,2121,2
242,2099,2117,2121,2
242,2096,2114,2118,2
242,2095,2111,2116,2
242,2095,2111,2115,2
242,2095,2113,2117,2
242,2096,2113,2117,2
242,2097,2114,2117,2
242,2096,2114,2118,2
242,2096,2113,2119,2
242,2096,2114,2119,2
242,2096,2113,2119,2
242,2096,2113,2117,2
242,2096,2114,2118,2
242,2098,2115,2118,2
242,2099,2117,2119,2
242,2098,2117,2120,2
242,2099,2116,2121,2
242,2096,2116,2120,2
242,2096,2113,2117,2
242,2094,2112,2117,2
242,2095,2112,2116,2
242,2095,2113,2116,2
242,2096,2112,2117,2
242,2097,2113,2117,2
242,2096,2114,2117,2
242,2096,2114,2119,2
242,2096,2114,2118,2
242,2095,2113,2118,2
242,2096,2113,2118,2
242,2096,2113,2119,2
242,2097,2113,2120,2
242,2099,2116,2121,2
242,2099,2117,2121,2
242,2099,2117,2121,2
242,2097,2117,2119,2
242,2095,2114,2117,2
242,2095,2112,2116,2
242,2097,2112,2116,2
242,2096,2112,2117,2
242,2096,2112,2117,2
242,2096,2114,2117,2
242,2097,2114,2117,2
242,2097,2115,2117,2
242,2096,2114,2117,2
242,2096,2112,2117,2
242,2097,2113,2118,2
242,2097,2115,2119,2
242,2099,2116,2119,2
242,2100,2116,2121,2
242,2099,2117,2121,2
242,2100,2115,2121,2
242,2099,2115,2119,2
242,2096,2112,2116,2
242,2094,2112,2116,2
242,2094,2112,2116,2
242,2096,2112,2116,2
242,2097,2113,2116,2
242,2096,2112,2117,2
242,2097,2112,2118,2
242,2097,2114,2118,2
242,2097,2113,2117,2
242,2095,2113,2117,2
242,2096,2113,2118,2
242,2096,2114,2119,2
242,2098,2115,2120,2
242,2100,2117,2121,2
242,2100,2117,2121,2
242,2098,2117,2121,2
242,2098,2114,2119,2
242,2095,2113,2119,2
242,2095,2113,2116,2
242,2094,2113,2117,2
242,2095,2112,2118,2
242,2096,2113,2118,2
242,2095,2114,2118,2
242,2096,2114,2118,2
242,2096,2114,2118,2
242,2095,2114,2117,2
242,2095,2113,2117,2
242,2097,2114,2118,2
242,2097,2115,2121,2
242,2099,2115,2121,2
242,2099,2117,2122,2
242,2100,2117,2122,2
242,2098,2117,2121,2
242,2096,2114,2118,2
242,2095,2112,2117,2
242,2097,2113,2117,2
242,2096,2113,2118,2
242,2096,2113,2118,2
242,2096,2113,2118,2
242,2096,2114,2119,2
242,2097,2114,2119,2
242,2097,2115,2118,2
242,2096,2113,2117,2
242,2096,2114,2117,2
242,2096,2114,2120,2
242,2097,2115,2120,2
242,2098,2115,2122,2
242,2098,2116,2122,2
242,2098,2115,2122,2
242,2098,2116,2121,2
242,2096,2113,2117,2
242,2094,2113,2117,2
242,2095,2113,2117,2
242,2095,2113,2117,2
242,2095,2112,2117,2
242,2097,2113,2117,2
242,2097,2113,2118,2
242,2097,2113,2119,2
242,2097,2113,2119,2
242,2095,2113,2119,2
242,2095,2113,2119,2
242,2095,2113,2121,2
242,2097,2114,2121,2
242,2099,2116,2122,2
242,2098,2116,2122,2
242,2098,2116,2122,2
242,2096,2116,2119,2
242,2096,2113,2118,2
242,2096,2112,2116,2
242,2097,2113,2116,2
242,2096,2113,2116,2
242,2097,2113,2117,2
242,2097,2113,2119,2
242,2098,2114,2119,2
242,2098,2114,2119,2
242,2096,2114,2118,2
242,2096,2113,2117,2
242,2098,2114,2118,2
242,2097,2115,2122,2
242,2099,2116,2122,2
242,2099,2116,2123,2
242,2099,2116,2123,2
242,2099,2114,2123,2
242,2097,2114,2121,2
242,2094,2112,2119,2
242,2094,2112,2118,2
242,2094,2112,2118,2
242,2095,2113,2118,2
242,2095,2113,2118,2
242,2095,2113,2119,2
242,2097,2113,2119,2
242,2098,2114,2119,2
242,2096,2114,2118,2
242,2094,2114,2118,2
242,2095,2114,2120,2
242,2095,2116,2121,2
242,2097,2116,2121,2
242,2099,2118,2122,2
242,2099,2118,2122,2
242,2098,2114,2122,2
242,2098,2114,2117,2
242,2094,2113,2117,2
242,2094,2113,2117,2
242,2094,2113,2118,2
242,2096,2113,2118,2
242,2098,2114,2118,2
242,2097,2114,2119,2
242,2097,2114,2119,2
242,2096,2114,2119,2
242,2096,2112,2119,2
242,2096,2112,2118,2
242,2098,2114,2119,2
242,2097,2115,2121,2
242,2099,2116,2122,2
242,2099,2116,2122,2
242,2099,2116,2122,2
242,2098,2116,2120,2
242,2096,2114,2118,2
242,2095,2112,2117,2
242,2097,2113,2117,2
242,2096,2114,2118,2
242,2095,2114,2118,2
242,2096,2114,2118,2
242,2096,2115,2119,2
242,2096,2114,2119,2
242,2097,2115,2119,2
242,2095,2114,2119,2
242,2096,2115,2119,2
242,2096,2115,2121,2
242,2098,2116,2121,2
242,2099,2116,2123,2
242,2099,2116,2123,2
242,2099,2115,2123,2
242,2098,2115,2121,2
242,2095,2113,2119,2
242,2093,2113,2118,2
242,2094,2113,2118,2
242,2094,2114,2118,2
242,2095,2114,2119,2
242,2097,2115,2119,2
242,2096,2114,2119,2
242,2096,2113,2119,2
242,2096,2113,2118,2
242,2094,2113,2118,2
242,2096,2113,2118,2
242,2096,2115,2120,2
242,2098,2115,2121,2
242,2100,2117,2122,2
242,2100,2117,2122,2
242,2098,2116,2122,2
242,2096,2116,2119,2
242,2096,2113,2118,2
242,2096,2112,2117,2
242,2097,2113,2118,2
242,2096,2113,2118,2
242,2097,2114,2118,2
242,2097,2114,2119,2
242,2098,2115,2119,2
242,2098,2115,2119,2
242,2097,2114,2118,2
242,2097,2114,2117,2
242,2099,2116,2119,2
242,2098,2116,2122,2
242,2100,2117,2122,2
242,2100,2117,2123,2
242,2100,2117,2122,2
242,2099,2115,2121,2
242,2098,2114,2118,2
242,2096,2113,2117,2
242,2096,2113,2116,2
242,2096,2113,2118,2
242,2096,2114,2118,2
242,2096,2114,2119,2
242,2096,2115,2119,2
242,2097,2114,2119,2
242,2098,2115,2119,2
242,2096,2114,2117,2
242,2096,2115,2117,2
242,2097,2115,2119,2
242,2097,2116,2121,2
242,2098,2116,2122,2
242,2100,2118,2122,2
242,2099,2117,2121,2
242,2096,2117,2120,2
242,2096,2113,2118,2
242,2094,2113,2118,2
242,2095,2113,2118,2
242,2094,2114,2118,2
242,2095,2113,2118,2
242,2097,2114,2119,2
242,2096,2114,2119,2
242,2096,2114,2119,2
242,2096,2114,2118,2
242,2096,2113,2118,2
242,2097,2113,2118,2
242,2099,2115,2119,2
242,2098,2116,2121,2
242,2099,2116,2122,2
242,2099,2118,2122,2
242,2099,2117,2122,2
242,2097,2117,2119,2
242,2094,2114,2117,2
242,2094,2112,2116,2
242,2096,2113,2117,2
242,2095,2114,2118,2
242,2096,2114,2118,2
242,2096,2114,2119,2
242,2096,2115,2119,2
242,2096,2114,2119,2
242,2096,2115,2118,2
242,2094,2114,2118,2
242,2096,2114,2118,2
242,2096,2116,2120,2
242,2099,2116,2120,2
242,2100,2118,2121,2
242,2099,2118,2121,2
242,2099,2116,2121,2
242,2096,2116,2119,2
242,2096,2113,2117,2
242,2094,2113,2117,2
242,2095,2113,2118,2
242,2095,2113,2118,2
242,2096,2113,2118,2
242,2098,2115,2118,2
242,2097,2114,2119,2
242,2096,2114,2119,2
242,2096,2113,2118,2
242,2096,2113,2118,2
242,2098,2115,2119,2
242,2098,2115,2120,2
242,2099,2115,2121,2
242,2100,2117,2121,2
242,2100,2117,2121,2
242,2098,2115,2121,2
242,2097,2115,2117,2
242,2094,2114,2116,2
242,2095,2113,2116,2
242,2097,2115,2117,2
242,2097,2114,2117,2
242,2097,2114,2118,2
242,2097,2115,2119,2
242,2097,2115,2120,2
242,2097,2116,2120,2
242,2095,2114,2119,2
242,2096,2115,2118,2
242,2097,2115,2120,2
242,2097,2117,2121,2
242,2099,2117,2121,2
242,2100,2118,2121,2
242,2099,2117,2120,2
242,2098,2114,2119,2
242,2095,2113,2117,2
242,2095,2112,2117,2
242,2095,2112,2117,2
242,2095,2113,2118,2
242,2095,2113,2118,2
242,2096,2114,2118,2
242,2095,2113,2118,2
242,2096,2113,2119,2
242,2095,2113,2118,2
242,2095,2112,2118,2
242,2097,2113,2118,2
242,2098,2115,2119,2
242,2097,2115,2120,2
242,2099,2115,2121,2
242,2099,2117,2122,2
242,2099,2116,2122,2
242,2097,2116,2118,2
242,2097,2112,2117,2
242,2096,2111,2116,2
242,2097,2113,2117,2
242,2096,2113,2117,2
242,2097,2113,2117,2
242,2097,2113,2118,2
242,2097,2115,2118,2
242,2098,2114,2118,2
242,2097,2114,2118,2
242,2095,2114,2118,2
242,2096,2114,2118,2
242,2096,2116,2120,2
242,2098,2117,2120,2
242,2099,2117,2122,2
242,2099,2116,2122,2
242,2099,2114,2121,2
242,2098,2114,2119,2
242,2095,2112,2117,2
242,2093,2113,2116,2
242,2094,2113,2117,2
242,2094,2113,2117,2
242,2095,2113,2117,2
242,2096,2115,2118,2
242,2095,2115,2118,2
242,2095,2114,2118,2
242,2095,2114,2117,2
242,2095,2114,2117,2
242,2096,2114,2120,2
242,2096,2115,2121,2
242,2097,2115,2122,2
242,2099,2117,2122,2
242,2098,2116,2121,2
242,2096,2115,2121,2
242,2094,2115,2117,2
242,2094,2112,2117,2
242,2094,2112,2117,2
242,2096,2114,2118,2
242,2095,2114,2118,2
242,2096,2114,2118,2
242,2096,2114,2120,2
242,2096,2115,2120,2
242,2096,2115,2119,2
242,2095,2114,2118,2
242,2096,2114,2118,2
242,2098,2116,2119,2
242,2098,2116,2121,2
242,2098,2117,2121,2
242,2099,2117,2121,2
242,2099,2116,2120,2
242,2097,2114,2119,2
242,2096,2113,2117,2
242,2093,2112,2117,2
242,2093,2112,2117,2
242,2093,2114,2118,2
242,2094,2114,2118,2
242,2095,2114,2119,2
242,2095,2114,2119,2
242,2096,2113,2119,2
242,2097,2114,2119,2
242,2095,2113,2119,2
242,2095,2114,2119,2
242,2096,2114,2121,2
242,2096,2116,2122,2
242,2098,2116,2122,2
242,2099,2118,2122,2
242,2098,2116,2120,2
242,2094,2116,2118,2
242,2094,2112,2116,2
242,2093,2112,2116,2
242,2095,2112,2117,2
242,2094,2112,2117,2
242,2095,2112,2118,2
242,2097,2113,2118,2
242,2096,2113,2118,2
242,2096,2113,2118,2
242,2096,2113,2118,2
242,2096,2112,2118,2
242,2096,2113,2118,2
242,2099,2115,2120,2
242,2098,2116,2121,2
242,2098,2116,2121,2
242,2098,2117,2121,2
242,2098,2115,2121,2
242,2096,2115,2117,2
242,2093,2113,2116,2
242,2094,2112,2115,2
242,2096,2114,2116,2
242,2095,2115,2116,2
242,2095,2115,2116,2
242,2096,2115,2118,2
242,2096,2114,2118,2
242,2096,2113,2118,2
242,2096,2114,2117,2
242,2094,2114,2118,2
242,2096,2114,2119,2
242,2096,2116,2120,2
242,2097,2117,2120,2
242,2098,2117,2122,2
242,2098,2117,2122,2
242,2098,2114,2121,2
242,2097,2114,2118,2
242,2094,2113,2116,2
242,2094,2113,2116,2
242,2095,2113,2118,2
242,2095,2114,2118,2
242,2096,2114,2118,2
242,2097,2116,2119,2
242,2096,2116,2119,2
242,2095,2116,2119,2
242,2095,2113,2119,2
242,2096,2114,2119,2
242,2097,2114,2119,2
242,2097,2115,2120,2
242,2098,2115,2121,2
242,2100,2117,2122,2
242,2099,2117,2121,2
242,2096,2115,2121,2
242,2094,2115,2116,2
242,2092,2114,2116,2
242,2093,2113,2116,2
242,2096,2115,2117,2
242,2096,2114,2118,2
242,2096,2114,2118,2
242,2096,2115,2119,2
242,2097,2114,2119,2
242,2096,2114,2118,2
242,2094,2113,2118,2
242,2095,2113,2118,2
242,2098,2114,2119,2
242,2098,2116,2120,2
242,2099,2116,2120,2
242,2099,2116,2121,2
242,2098,2115,2120,2
242,2097,2112,2119,2
242,2097,2112,2117,2
242,2094,2111,2117,2
242,2095,2111,2117,2
242,2095,2113,2117,2
242,2096,2113,2117,2
242,2097,2114,2117,2
242,2096,2114,2118,2
242,2096,2113,2118,2
242,2095,2114,2118,2
242,2095,2114,2118,2
242,2096,2115,2118,2
242,2097,2115,2120,2
242,2096,2116,2121,2
242,2098,2116,2122,2
242,2099,2117,2122,2
242,2097,2115,2122,2
242,2095,2115,2118,2
242,2095,2112,2117,2
242,2093,2112,2117,2
242,2095,2113,2118,2
242,2095,2113,2118,2
242,2095,2112,2118,2
242,2096,2113,2119,2
242,2096,2113,2119,2
242,2095,2113,2119,2
242,2095,2113,2118,2
242,2094,2113,2118,2
242,2096,2113,2119,2
242,2098,2116,2120,2
242,2097,2116,2121,2
242,2098,2116,2121,2
242,2098,2116,2121,2
242,2097,2114,2121,2
242,2096,2113,2118,2
242,2093,2112,2117,2
242,2093,2112,2117,2
242,2095,2113,2118,2
242,2095,2113,2118,2
242,2095,2113,2118,2
242,2096,2113,2119,2
242,2095,2113,2119,2
242,2095,2112,2118,2
242,2096,2113,2118,2
242,2095,2113,2120,2
242,2096,2113,2120,2
242,2096,2116,2121,2
242,2098,2116,2121,2
242,2099,2117,2121,2
242,2098,2117,2120,2
242,2097,2114,2119,2
242,2094,2113,2117,2
242,2094,2111,2117,2
242,2094,2112,2117,2
242,2094,2112,2118,2
242,2093,2113,2118,2
242,2094,2113,2118,2
242,2096,2115,2119,2
242,2095,2114,2119,2
242,2094,2114,2119,2
242,2094,2113,2119,2
242,2096,2114,2119,2
242,2097,2116,2120,2
242,2097,2116,2121,2
242,2098,2115,2122,2
242,2099,2117,2122,2
242,2099,2116,2120,2
242,2096,2114,2120,2
242,2095,2114,2116,2
242,2093,2114,2116,2
242,2094,2113,2116,2
242,2096,2114,2117,2
242,2095,2114,2118,2
242,2096,2114,2118,2
242,2096,2115,2119,2
242,2096,2115,2119,2
242,2096,2115,2118,2
242,2094,2114,2118,2
242,2095,2114,2118,2
242,2098,2116,2119,2
242,2098,2118,2120,2
242,2099,2118,2120,2
242,2099,2118,2121,2
242,2097,2116,2119,2
242,2096,2113,2117,2
242,2096,2113,2116,2
242,2094,2113,2116,2
242,2095,2113,2118,2
242,2095,2114,2118,2
242,2096,2114,2118,2
242,2097,2115,2118,2
242,2096,2115,2118,2
242,2096,2113,2118,2
242,2095,2114,2117,2
242,2095,2114,2118,2
242,2097,2115,2118,2
242,2097,2115,2120,2
242,2097,2116,2120,2
242,2099,2116,2121,2
242,2099,2117,2121,2
242,2097,2115,2117,2
242,2093,2115,2117,2
242,2093,2112,2116,2
242,2094,2112,2116,2
242,2095,2114,2117,2
242,2094,2114,2117,2
242,2095,2113,2117,2
242,2096,2115,2118,2
242,2096,2115,2118,2
242,2095,2114,2118,2
242,2095,2114,2117,2
242,2094,2114,2118,2
242,2096,2114,2119,2
242,2099,2116,2120,2
242,2099,2116,2121,2
242,2099,2116,2121,2
242,2099,2116,2120,2
242,2097,2114,2120,2
242,2095,2114,2117,2
242,2092,2113,2117,2
242,2094,2112,2117,2
242,2095,2114,2118,2
242,2095,2114,2118,2
242,2096,2114,2118,2
242,2097,2114,2120,2
242,2096,2114,2119,2
242,2096,2113,2118,2
242,2098,2113,2118,2
242,2097,2113,2119,2
242,2098,2113,2119,2
242,2098,2116,2120,2
242,2100,2116,2120,2
242,2100,2118,2120,2
242,2098,2116,2119,2
242,2096,2113,2118,2
242,2095,2113,2117,2
242,2095,2113,2117,2
242,2095,2113,2117,2
242,2095,2113,2118,2
242,2094,2113,2118,2
242,2096,2113,2118,2
242,2097,2115,2119,2
242,2096,2115,2119,2
242,2096,2115,2119,2
242,2096,2113,2119,2
242,2098,2113,2119,2
242,2099,2115,2120,2
242,2098,2115,2121,2
242,2099,2115,2122,2
242,2099,2117,2122,2
242,2099,2115,2119,2
242,2095,2113,2119,2
242,2095,2113,2116,2
242,2093,2113,2116,2
242,2096,2112,2117,2
242,2097,2114,2118,2
242,2097,2114,2118,2
242,2097,2114,2119,2
242,2097,2115,2119,2
242,2096,2114,2119,2
242,2096,2114,2118,2
242,2094,2113,2119,2
242,2096,2113,2120,2
242,2097,2115,2122,2
242,2097,2117,2122,2
242,2099,2117,2122,2
242,2099,2117,2121,2
242,2097,2115,2119,2
242,2096,2112,2117,2
242,2095,2112,2116,2
242,2095,2114,2116,2
242,2096,2114,2118,2
242,2096,2114,2118,2
242,2097,2114,2118,2
242,2098,2116,2119,2
242,2097,2115,2119,2
242,2097,2114,2119,2
242,2096,2114,2118,2
242,2096,2115,2119,2
242,2098,2116,2119,2
242,2099,2118,2120,2
242,2099,2118,2121,2
242,2099,2117,2121,2
242,2097,2118,2120,2
242,2097,2114,2120,2
242,2095,2114,2116,2
242,2095,2111,2116,2
242,2096,2112,2116,2
242,2097,2114,2117,2
242,2096,2114,2118,2
242,2097,2115,2118,2
242,2096,2115,2120,2
242,2096,2114,2120,2
242,2095,2113,2120,2
242,2096,2113,2119,2
242,2095,2113,2120,2
242,2096,2113,2121,2
242,2099,2116,2121,2
242,2099,2118,2121,2
242,2100,2118,2121,2
242,2100,2116,2119,2
242,2098,2114,2118,2
242,2097,2114,2117,2
242,2095,2113,2117,2
242,2096,2113,2117,2
242,2096,2113,2119,2
242,2096,2114,2119,2
242,2097,2114,2119,2
242,2097,2116,2119,2
242,2096,2115,2119,2
242,2096,2113,2119,2
242,2096,2114,2119,2
242,2097,2115,2119,2
242,2097,2115,2121,2
242,2097,2117,2122,2
242,2098,2117,2122,2
242,2099,2118,2122,2
242,2098,2116,2120,2
242,2094,2114,2118,2
242,2094,2114,2116,2
242,2094,2113,2117,2
242,2095,2113,2118,2
242,2096,2114,2118,2
242,2095,2114,2119,2
242,2096,2115,2119,2
242,2096,2115,2119,2
242,2096,2115,2119,2
242,2096,2115,2118,2
242,2095,2115,2119,2
242,2096,2115,2119,2
242,2099,2117,2120,2
242,2098,2117,2122,2
242,2098,2117,2122,2
242,2097,2117,2121,2
242,2097,2114,2119,2
242,2095,2112,2118,2
242,2095,2112,2117,2
242,2094,2113,2118,2
242,2096,2114,2118,2
242,2096,2114,2118,2
242,2096,2114,2118,2
242,2097,2114,2120,2
242,2096,2114,2120,2
242,2096,2112,2119,2
242,2097,2113,2118,2
242,2096,2113,2120,2
242,2098,2115,2120,2
242,2099,2115,2122,2
242,2099,2116,2122,2
242,2100,2116,2122,2
242,2100,2117,2121,2
242,2097,2114,2117,2
242,2094,2114,2117,2
242,2094,2113,2117,2
242,2095,2113,2117,2
242,2096,2115,2118,2
242,2095,2114,2118,2
242,2096,2114,2118,2
242,2097,2116,2119,2
242,2097,2116,2119,2
242,2096,2114,2119,2
242,2097,2114,2119,2
242,2096,2115,2120,2
242,2098,2115,2120,2
242,2100,2117,2121,2
242,2099,2117,2122,2
242,2099,2117,2122,2
242,2099,2116,2120,2
242,2095,2114,2120,2
242,2095,2114,2118,2
242,2093,2113,2118,2
242,2095,2112,2118,2
242,2096,2114,2118,2
242,2096,2115,2119,2
242,2097,2115,2119,2
242,2097,2115,2120,2
242,2095,2114,2119,2
242,2095,2113,2119,2
242,2097,2114,2119,2
242,2096,2114,2121,2
242,2098,2114,2121,2
242,2098,2116,2122,2
242,2099,2116,2122,2
242,2099,2118,2122,2
242,2098,2116,2120,2
242,2096,2113,2118,2
242,2095,2113,2117,2
242,2095,2114,2118,2
242,2096,2114,2118,2
242,2096,2114,2118,2
242,2095,2114,2119,2
242,2097,2114,2119,2
242,2098,2116,2119,2
242,2096,2115,2117,2
242,2095,2115,2117,2
242,2095,2115,2119,2
242,2098,2116,2119,2
242,2099,2118,2121,2
242,2099,2118,2121,2
242,2099,2117,2122,2
242,2098,2118,2122,2
242,2098,2115,2119,2
242,2095,2113,2119,2
242,2095,2113,2117,2
242,2094,2113,2118,2
242,2096,2112,2118,2
242,2097,2114,2118,2
242,2097,2115,2118,2
242,2097,2115,2120,2
242,2097,2115,2119,2
242,2096,2114,2119,2
242,2096,2114,2119,2
242,2095,2114,2120,2
242,2097,2114,2120,2
242,2097,2116,2122,2
242,2097,2118,2122,2
242,2099,2117,2122,2
242,2098,2117,2121,2
242,2095,2115,2118,2
242,2094,2112,2117,2
242,2095,2112,2117,2
242,2095,2114,2117,2
242,2095,2114,2119,2
242,2095,2114,2119,2
242,2097,2114,2119,2
242,2098,2115,2120,2
242,2096,2114,2119,2
242,2096,2113,2119,2
242,2096,2113,2119,2
242,2096,2115,2120,2
242,2098,2116,2120,2
242,2099,2118,2121,2
242,2098,2117,2121,2
242,2098,2116,2121,2
242,2096,2116,2119,2
242,2096,2112,2119,2
242,2094,2112,2116,2
242,2094,2111,2116,2
242,2095,2112,2117,2
242,2096,2114,2118,2
242,2095,2114,2118,2
242,2096,2115,2118,2
242,2096,2115,2119,2
242,2096,2113,2118,2
242,2095,2113,2118,2
242,2096,2114,2118,2
242,2096,2115,2120,2
242,2098,2115,2121,2
242,2100,2117,2122,2
242,2100,2117,2122,2
242,2099,2117,2122,2
242,2099,2115,2120,2
242,2097,2113,2118,2
242,2097,2113,2117,2
242,2094,2112,2117,2
242,2095,2113,2118,2
242,2096,2113,2118,2
242,2096,2114,2119,2
242,2097,2114,2119,2
242,2097,2116,2119,2
242,2095,2114,2119,2
242,2095,2113,2118,2
242,2097,2114,2119,2
242,2097,2116,2119,2
242,2098,2116,2121,2
242,2098,2117,2122,2
242,2099,2117,2122,2
242,2099,2118,2121,2
242,2097,2115,2118,2
242,2095,2112,2116,2
242,2095,2112,2116,2
242,2095,2113,2117,2
242,2096,2113,2117,2
242,2096,2114,2117,2
242,2095,2114,2118,2
242,2096,2113,2118,2
242,2096,2114,2118,2
242,2096,2113,2118,2
242,2095,2113,2118,2
242,2095,2114,2119,2
242,2096,2115,2120,2
242,2098,2117,2121,2
242,2098,2117,2121,2
242,2099,2116,2121,2
242,2097,2116,2119,2
242,2097,2113,2117,2
242,2094,2112,2117,2
242,2095,2112,2117,2
242,2094,2112,2118,2
242,2095,2112,2118,2
242,2096,2114,2118,2
242,2096,2115,2118,2
242,2096,2115,2120,2
242,2096,2114,2119,2
242,2096,2113,2118,2
242,2097,2113,2118,2
242,2096,2114,2119,2
242,2097,2114,2120,2
242,2098,2116,2122,2
242,2098,2118,2122,2
242,2099,2117,2122,2
242,2098,2117,2120,2
242,2095,2114,2117,2
242,2094,2112,2116,2
242,2095,2113,2117,2
242,2095,2114,2117,2
242,2095,2114,2117,2
242,2095,2114,2117,2
242,2096,2114,2117,2
242,2096,2115,2118,2
242,2095,2114,2118,2
242,2095,2112,2118,2
242,2095,2112,2118,2
242,2095,2115,2119,2
242,2098,2115,2119,2
242,2099,2117,2120,2
242,2098,2117,2120,2
242,2098,2115,2120,2
242,2095,2115,2118,2
242,2095,2113,2118,2
242,2094,2113,2115,2
242,2094,2112,2116,2
242,2096,2112,2116,2
242,2097,2113,2116,2
242,2095,2113,2117,2
242,2096,2115,2118,2
242,2096,2115,2118,2
242,2096,2114,2118,2
242,2095,2114,2118,2
242,2097,2115,2119,2
242,2096,2115,2120,2
242,2098,2115,2121,2
242,2100,2117,2122,2
242,2100,2118,2122,2
242,2099,2118,2121,2
242,2099,2115,2118,2
242,2097,2113,2117,2
242,2097,2113,2116,2
242,2095,2113,2117,2
242,2096,2113,2118,2
242,2096,2113,2118,2
242,2096,2114,2119,2
242,2097,2113,2119,2
242,2097,2115,2119,2
242,2095,2114,2118,2
242,2095,2113,2117,2
242,2098,2115,2118,2
242,2098,2117,2118,2
242,2099,2117,2121,2
242,2099,2118,2122,2
242,2099,2117,2122,2
242,2099,2117,2120,2
242,2096,2114,2118,2
242,2095,2112,2116,2
242,2095,2112,2116,2
242,2095,2113,2117,2
242,2096,2113,2117,2
242,2096,2114,2118,2
242,2095,2114,2118,2
242,2096,2112,2118,2
242,2095,2113,2118,2
242,2095,2112,2118,2
242,2095,2112,2118,2
242,2095,2114,2119,2
242,2097,2115,2119,2
242,2099,2117,2120,2
242,2098,2116,2120,2
242,2098,2115,2120,2
242,2096,2115,2118,2
242,2096,2112,2117,2
242,2094,2112,2117,2
242,2095,2113,2117,2
242,2094,2113,2117,2
242,2095,2112,2117,2
242,2097,2113,2117,2
242,2097,2114,2117,2
242,2097,2114,2119,2
242,2097,2113,2118,2
242,2096,2112,2118,2
242,2097,2113,2118,2
242,2097,2113,2119,2
242,2098,2115,2120,2
242,2099,2115,2122,2
242,2099,2117,2122,2
242,2099,2116,2122,2
242,2097,2116,2119,2
242,2094,2114,2117,2
242,2094,2112,2116,2
242,2096,2113,2116,2
242,2096,2114,2116,2
242,2096,2114,2117,2
242,2096,2113,2117,2
242,2096,2113,2118,2
242,2096,2114,2118,2
242,2095,2113,2117,2
242,2095,2113,2116,2
242,2096,2113,2117,2
242,2096,2115,2119,2
242,2099,2116,2119,2
242,2100,2118,2120,2
242,2099,2117,2120,2
242,2099,2114,2120,2
242,2095,2114,2118,2
242,2095,2112,2118,2
242,2095,2112,2116,2
242,2095,2113,2117,2
242,2095,2113,2118,2
242,2096,2114,2118,2
242,2096,2114,2118,2
242,2097,2114,2118,2
242,2096,2114,2118,2
242,2096,2112,2117,2
242,2096,2113,2117,2
242,2097,2115,2118,2
242,2097,2115,2120,2
242,2098,2115,2121,2
242,2099,2117,2121,2
242,2099,2117,2121,2
242,2097,2117,2120,2
242,2097,2114,2117,2
242,2095,2113,2115,2
242,2095,2113,2115,2
242,2094,2113,2117,2
242,2095,2113,2117,2
242,2095,2113,2117,2
242,2095,2114,2118,2
242,2096,2114,2118,2
242,2096,2115,2118,2
242,2094,2114,2117,2
242,2095,2113,2117,2
242,2097,2114,2118,2
242,2097,2116,2118,2
242,2097,2116,2120,2
242,2097,2116,2121,2
242,2097,2115,2121,2
242,2096,2115,2120,2
242,2094,2113,2118,2
242,2094,2111,2116,2
242,2094,2111,2116,2
242,2094,2113,2117,2
242,2095,2113,2117,2
242,2096,2115,2117,2
242,2095,2114,2118,2
242,2095,2113,2118,2
242,2095,2113,2117,2
242,2094,2113,2117,2
242,2095,2113,2117,2
242,2095,2114,2118,2
242,2097,2114,2119,2
242,2099,2116,2120,2
242,2098,2116,2120,2
242,2097,2115,2120,2
242,2095,2115,2116,2
242,2095,2112,2115,2
242,2094,2111,2114,2
242,2096,2113,2115,2
242,2096,2113,2116,2
242,2096,2112,2117,2
242,2096,2112,2117,2
242,2096,2113,2117,2
242,2096,2113,2118,2
242,2095,2113,2117,2
242,2094,2112,2116,2
242,2097,2114,2117,2
242,2096,2114,2120,2
242,2098,2115,2120,2
242,2098,2115,2121,2
242,2098,2116,2121,2
242,2097,2114,2120,2
242,2095,2114,2118,2
242,2093,2112,2117,2
242,2092,2112,2116,2
242,2092,2113,2117,2
242,2094,2113,2117,2
242,2094,2113,2117,2
242,2094,2113,2117,2
242,2095,2112,2117,2
242,2096,2114,2117,2
242,2095,2113,2115,2
242,2094,2113,2115,2
242,2095,2113,2117,2
242,2095,2116,2119,2
242,2097,2116,2120,2
242,2098,2118,2120,2
242,2098,2117,2120,2
242,2095,2117,2119,2
242,2095,2113,2117,2
242,2093,2112,2117,2
242,2094,2112,2116,2
242,2093,2112,2116,2
242,2094,2112,2116,2
242,2096,2113,2116,2
242,2095,2113,2117,2
242,2095,2113,2117,2
242,2095,2113,2117,2
242,2095,2112,2117,2
242,2095,2112,2117,2
242,2097,2114,2118,2
242,2096,2115,2119,2
242,2097,2115,2119,2
242,2097,2116,2120,2
242,2097,2115,2120,2
242,2095,2115,2117,2
242,2093,2113,2115,2
242,2093,2111,2114,2
242,2095,2112,2114,2
242,2094,2112,2115,2
242,2095,2113,2115,2
242,2095,2113,2116,2
242,2095,2114,2117,2
242,2095,2113,2117,2
242,2095,2113,2117,2
242,2094,2113,2117,2
242,2095,2113,2117,2
242,2095,2115,2118,2
242,2097,2115,2118,2
242,2098,2115,2119,2
242,2098,2115,2119,2
242,2098,2113,2119,2
242,2097,2113,2117,2
242,2094,2111,2114,2
242,2092,2111,2114,2
242,2093,2111,2115,2
242,2093,2113,2116,2
242,2093,2113,2116,2
242,2095,2114,2116,2
242,2095,2114,2116,2
242,2096,2112,2116,2
242,2096,2112,2116,2
242,2094,2112,2116,2
242,2095,2112,2117,2
242,2095,2113,2118,2
242,2097,2113,2119,2
242,2099,2115,2119,2
242,2099,2115,2119,2
242,2097,2114,2119,2
242,2095,2114,2115,2
242,2095,2111,2114,2
242,2094,2111,2114,2
242,2096,2112,2115,2
242,2095,2112,2115,2
242,2095,2112,2115,2
242,2095,2114,2116,2
242,2096,2114,2116,2
242,2096,2114,2116,2
242,2095,2113,2116,2
242,2095,2112,2116,2
242,2097,2113,2117,2
242,2096,2113,2119,2
242,2097,2114,2119,2
242,2098,2114,2120,2
242,2098,2114,2119,2
242,2097,2112,2119,2
242,2096,2112,2116,2
242,2093,2111,2115,2
242,2093,2111,2115,2
242,2093,2111,2116,2
242,2094,2111,2116,2
242,2094,2111,2116,2
242,2094,2112,2117,2
242,2095,2111,2117,2
242,2096,2112,2117,2
242,2095,2111,2117,2
242,2094,2112,2117,2
242,2095,2112,2119,2
242,2095,2115,2120,2
242,2096,2115,2121,2
242,2097,2117,2121,2
242,2096,2116,2119,2
242,2094,2116,2118,2
242,2094,2112,2116,2
242,2092,2112,2116,2
242,2093,2112,2116,2
242,2093,2113,2116,2
242,2094,2112,2117,2
242,2096,2112,2117,2
242,2095,2112,2117,2
242,2095,2112,2117,2
242,2095,2112,2117,2
242,2095,2111,2117,2
242,2095,2112,2117,2
242,2097,2114,2118,2
242,2097,2115,2120,2
242,2098,2115,2120,2
242,2098,2116,2120,2
242,2097,2114,2120,2
242,2095,2114,2116,2
242,2093,2112,2115,2
242,2093,2110,2114,2
242,2095,2111,2115,2
242,2094,2113,2115,2
242,2094,2113,2115,2
242,2094,2113,2116,2
242,2093,2113,2117,2
242,2094,2112,2117,2
242,2094,2112,2117,2
242,2093,2112,2117,2
242,2095,2112,2117,2
242,2095,2114,2119,2
242,2097,2115,2119,2
242,2098,2117,2120,2
242,2097,2116,2120,2
242,2097,2113,2120,2
242,2094,2113,2117,2
242,2094,2111,2116,2
242,2093,2111,2116,2
242,2094,2111,2117,2
242,2093,2111,2117,2
242,2094,2111,2117,2
242,2096,2113,2117,2
242,2095,2113,2117,2
242,2094,2113,2117,2
242,2094,2112,2116,2
242,2094,2112,2116,2
242,2095,2114,2117,2
242,2095,2114,2118,2
242,2097,2114,2119,2
242,2098,2115,2120,2
242,2098,2115,2119,2
242,2096,2114,2119,2
242,2094,2114,2115,2
242,2092,2112,2115,2
242,2093,2112,2115,2
242,2095,2113,2116,2
242,2094,2113,2116,2
242,2094,2113,2116,2
242,2094,2114,2117,2
242,2095,2113,2117,2
242,2095,2114,2117,2
242,2093,2112,2117,2
242,2094,2111,2117,2
242,2096,2113,2118,2
242,2096,2115,2119,2
242,2098,2115,2119,2
242,2099,2115,2120,2
242,2098,2114,2118,2
242,2097,2111,2118,2
242,2097,2110,2116,2
242,2094,2110,2116,2
242,2094,2110,2116,2
242,2094,2111,2116,2
242,2095,2111,2116,2
242,2095,2112,2116,2
242,2094,2112,2116,2
242,2094,2111,2117,2
242,2094,2113,2117,2
242,2094,2112,2117,2
242,2095,2113,2117,2
242,2096,2113,2119,2
242,2096,2114,2120,2
242,2097,2114,2121,2
242,2098,2115,2121,2
242,2098,2113,2117,2
242,2095,2113,2117,2
242,2095,2110,2115,2
242,2094,2110,2115,2
242,2095,2112,2115,2
242,2094,2112,2116,2
242,2095,2112,2116,2
242,2095,2112,2118,2
242,2095,2114,2118,2
242,2095,2113,2118,2
242,2094,2113,2117,2
242,2093,2112,2117,2
242,2095,2112,2117,2
242,2098,2114,2119,2
242,2098,2116,2119,2
242,2098,2116,2121,2
242,2098,2116,2120,2
242,2097,2114,2119,2
242,2096,2114,2117,2
242,2093,2112,2116,2
242,2093,2112,2115,2
242,2093,2112,2116,2
242,2093,2112,2117,2
242,2094,2112,2117,2
242,2095,2113,2117,2
242,2094,2112,2117,2
242,2095,2110,2117,2
242,2095,2111,2116,2
242,2095,2113,2116,2
242,2096,2113,2118,2
242,2096,2114,2119,2
242,2097,2114,2120,2
242,2098,2116,2121,2
242,2097,2115,2120,2
242,2096,2112,2119,2
242,2094,2112,2114,2
242,2094,2111,2114,2
242,2094,2111,2114,2
242,2094,2113,2115,2
242,2093,2112,2116,2
242,2095,2112,2116,2
242,2096,2114,2117,2
242,2096,2114,2117,2
242,2095,2114,2117,2
242,2095,2112,2117,2
242,2095,2112,2117,2
242,2097,2114,2118,2
242,2096,2114,2120,2
242,2097,2115,2120,2
242,2097,2115,2120,2
242,2097,2115,2119,2
242,2094,2113,2119,2
242,2093,2112,2116,2
242,2091,2110,2116,2
242,2093,2110,2116,2
242,2094,2112,2116,2
242,2094,2112,2116,2
242,2094,2112,2116,2
242,2094,2113,2117,2
242,2095,2112,2117,2
242,2095,2113,2117,2
242,2093,2111,2117,2
242,2094,2113,2117,2
242,2095,2113,2119,2
242,2095,2115,2120,2
242,2098,2116,2120,2
242,2098,2117,2120,2
242,2097,2115,2118,2
242,2095,2112,2117,2
242,2093,2112,2115,2
242,2093,2111,2115,2
242,2094,2111,2116,2
242,2094,2112,2116,2
242,2094,2112,2116,2
242,2095,2113,2116,2
242,2094,2113,2117,2
242,2095,2112,2117,2
242,2094,2112,2115,2
242,2094,2112,2116,2
242,2096,2113,2116,2
242,2097,2115,2118,2
242,2097,2115,2119,2
242,2098,2114,2120,2
242,2096,2115,2120,2
242,2096,2113,2120,2
242,2094,2113,2116,2
242,2094,2110,2115,2
242,2094,2110,2115,2
242,2095,2112,2116,2
242,2094,2112,2116,2
242,2094,2111,2116,2
242,2094,2111,2118,2
242,2094,2113,2118,2
242,2095,2112,2118,2
242,2095,2113,2117,2
242,2093,2113,2118,2
242,2094,2112,2119,2
242,2097,2115,2120,2
242,2097,2117,2120,2
242,2098,2117,2121,2
242,2098,2115,2120,2
242,2096,2113,2119,2
242,2095,2113,2117,2
242,2092,2111,2116,2
242,2093,2112,2115,2
242,2093,2112,2117,2
242,2093,2112,2117,2
242,2094,2112,2117,2
242,2095,2114,2118,2
242,2094,2113,2118,2
242,2094,2111,2118,2
242,2095,2112,2117,2
242,2095,2114,2117,2
242,2096,2114,2119,2
242,2096,2115,2120,2
242,2097,2115,2120,2
242,2098,2116,2120,2
242,2097,2114,2118,2
242,2096,2111,2117,2
242,2094,2111,2114,2
242,2094,2110,2115,2
242,2095,2111,2115,2
242,2095,2113,2115,2
242,2094,2112,2115,2
242,2095,2111,2116,2
242,2095,2113,2117,2
242,2095,2113,2117,2
242,2094,2113,2116,2
242,2094,2111,2116,2
242,2095,2112,2117,2
242,2097,2114,2118,2
242,2096,2114,2119,2
242,2097,2115,2120,2
242,2097,2115,2120,2
242,2097,2113,2118,2
242,2094,2111,2118,2
242,2094,2111,2116,2
242,2092,2111,2116,2
242,2093,2111,2116,2
242,2094,2112,2116,2
242,2094,2113,2116,2
242,2095,2113,2117,2
242,2095,2114,2117,2
242,2095,2113,2117,2
242,2095,2113,2116,2
242,2093,2112,2117,2
242,2094,2114,2117,2
242,2095,2114,2119,2
242,2095,2116,2120,2
242,2097,2116,2120,2
242,2097,2117,2120,2
242,2096,2115,2118,2
242,2095,2112,2116,2
242,2094,2112,2115,2
242,2094,2112,2115,2
242,2094,2112,2117,2
242,2094,2112,2117,2
242,2094,2112,2117,2
242,2095,2113,2117,2
242,2094,2113,2117,2
242,2094,2112,2117,2
242,2093,2112,2116,2
242,2093,2112,2117,2
242,2095,2113,2117,2
242,2097,2115,2119,2
242,2096,2115,2120,2
242,2097,2115,2120,2
242,2096,2116,2119,2
242,2096,2113,2119,2
242,2094,2113,2114,2
242,2094,2110,2114,2
242,2094,2110,2114,2
242,2095,2112,2115,2
242,2094,2112,2116,2
242,2094,2113,2116,2
242,2094,2113,2118,2
242,2094,2113,2118,2
242,2093,2112,2118,2
242,2094,2112,2117,2
242,2093,2112,2118,2
242,2095,2112,2118,2
242,2097,2115,2119,2
242,2097,2117,2119,2
242,2097,2117,2119,2
242,2097,2116,2118,2
242,2094,2113,2118,2
242,2093,2113,2116,2
242,2091,2111,2116,2
242,2093,2110,2116,2
242,2093,2112,2117,2
242,2093,2113,2117,2
242,2094,2113,2117,2
242,2094,2113,2117,2
242,2093,2112,2117,2
242,2093,2110,2117,2
242,2095,2111,2117,2
242,2095,2113,2117,2
242,2095,2113,2119,2
242,2095,2115,2120,2
242,2098,2115,2120,2
242,2098,2116,2120,2
242,2097,2114,2118,2
242,2095,2111,2117,2
242,2093,2111,2114,2
242,2093,2110,2114,2
242,2095,2111,2114,2
242,2095,2113,2115,2
242,2093,2113,2116,2
242,2094,2113,2117,2
242,2096,2115,2117,2
242,2094,2114,2117,2
242,2093,2114,2115,2
242,2093,2113,2116,2
242,2095,2113,2116,2
242,2097,2115,2118,2
242,2096,2115,2119,2
242,2097,2114,2119,2
242,2096,2115,2119,2
242,2096,2113,2117,2
242,2093,2112,2117,2
242,2093,2112,2115,2
242,2092,2111,2116,2
242,2093,2111,2116,2
242,2095,2112,2116,2
242,2094,2113,2116,2
242,2094,2113,2118,2
242,2094,2113,2118,2
242,2094,2112,2118,2
242,2094,2112,2117,2
242,2093,2112,2118,2
242,2094,2112,2118,2
242,2097,2115,2119,2
242,2097,2117,2119,2
242,2098,2117,2119,2
242,2097,2117,2119,2
242,2095,2114,2116,2
242,2094,2111,2114,2
242,2095,2111,2114,2
242,2093,2112,2114,2
242,2093,2112,2116,2
242,2093,2112,2116,2
242,2095,2112,2116,2
242,2095,2114,2117,2
242,2094,2113,2117,2
242,2094,2111,2117,2
242,2095,2111,2116,2
242,2095,2113,2117,2
242,2096,2113,2117,2
242,2097,2113,2119,2
242,2096,2114,2119,2
242,2097,2114,2119,2
242,2097,2114,2118,2
242,2095,2111,2114,2
242,2092,2111,2114,2
242,2092,2110,2114,2
242,2093,2110,2114,2
242,2094,2112,2115,2
242,2093,2112,2115,2
242,2094,2111,2116,2
242,2094,2113,2117,2
242,2094,2114,2116,2
242,2093,2113,2116,2
242,2094,2113,2116,2
242,2094,2113,2117,2
242,2095,2113,2118,2
242,2097,2115,2119,2
242,2097,2115,2119,2
242,2097,2115,2119,2
242,2097,2114,2117,2
242,2094,2112,2117,2
242,2093,2111,2115,2
242,2091,2111,2115,2
242,2093,2111,2115,2
242,2094,2113,2115,2
242,2094,2113,2116,2
242,2095,2113,2116,2
242,2095,2113,2117,2
242,2094,2112,2116,2
242,2094,2111,2116,2
242,2095,2112,2116,2
242,2094,2112,2119,2
242,2096,2112,2119,2
242,2096,2115,2120,2
242,2098,2115,2120,2
242,2098,2116,2120,2
242,2096,2114,2118,2
242,2094,2111,2116,2
242,2093,2111,2115,2
242,2093,2111,2115,2
242,2094,2111,2115,2
242,2094,2111,2115,2
242,2093,2111,2116,2
242,2094,2111,2117,2
242,2095,2113,2117,2
242,2093,2112,2116,2
242,2092,2112,2116,2
242,2092,2112,2117,2
242,2094,2113,2117,2
242,2096,2115,2118,2
242,2095,2115,2119,2
242,2096,2114,2120,2
242,2095,2115,2119,2
242,2095,2112,2116,2
242,2092,2111,2116,2
242,2092,2111,2115,2
242,2091,2111,2116,2
242,2092,2111,2116,2
242,2094,2112,2116,2
242,2094,2112,2117,2
242,2093,2112,2117,2
242,2093,2112,2117,2
242,2093,2112,2117,2
242,2093,2112,2116,2
242,2092,2112,2117,2
242,2094,2112,2117,2
242,2096,2114,2118,2
242,2096,2116,2119,2
242,2096,2115,2119,2
242,2095,2115,2117,2
242,2093,2113,2115,2
242,2092,2111,2114,2
242,2093,2111,2114,2
242,2092,2111,2116,2
242,2093,2111,2116,2
242,2093,2111,2116,2
242,2094,2111,2116,2
242,2094,2113,2117,2
242,2092,2113,2117,2
242,2092,2111,2117,2
242,2094,2111,2117,2
242,2094,2113,2118,2
242,2096,2114,2118,2
242,2097,2114,2120,2
242,2096,2114,2120,2
242,2096,2113,2120,2
242,2095,2114,2118,2
242,2093,2111,2115,2
242,2091,2111,2115,2
242,2091,2110,2115,2
242,2092,2111,2115,2
242,2093,2112,2116,2
242,2092,2111,2116,2
242,2094,2111,2116,2
242,2095,2113,2116,2
242,2093,2113,2116,2
242,2092,2113,2116,2
242,2093,2113,2116,2
242,2093,2113,2117,2
242,2095,2113,2118,2
242,2097,2116,2119,2
242,2097,2116,2119,2
242,2095,2116,2119,2
242,2095,2113,2117,2
242,2092,2111,2117,2
242,2092,2111,2114,2
242,2091,2111,2115,2
242,2092,2110,2116,2
242,2093,2112,2116,2
242,2093,2113,2117,2
242,2094,2113,2117,2
242,2094,2113,2117,2
242,2093,2113,2116,2
242,2093,2112,2116,2
242,2095,2113,2117,2
242,2095,2113,2119,2
242,2096,2113,2119,2
242,2096,2115,2119,2
242,2097,2115,2119,2
242,2097,2116,2118,2
242,2095,2114,2116,2
242,2093,2111,2114,2
242,2092,2111,2114,2
242,2092,2111,2115,2
242,2093,2111,2115,2
242,2094,2111,2115,2
242,2093,2112,2116,2
242,2094,2112,2117,2
242,2095,2113,2117,2
242,2093,2112,2115,2
242,2092,2112,2115,2
242,2092,2113,2116,2
242,2095,2114,2116,2
242,2096,2116,2117,2
242,2096,2116,2118,2
242,2097,2114,2119,2
242,2095,2114,2118,2
242,2095,2110,2116,2
242,2092,2109,2116,2
242,2093,2109,2115,2
242,2092,2110,2116,2
242,2093,2110,2116,2
242,2095,2111,2116,2
242,2094,2111,2117,2
242,2094,2111,2117,2
242,2094,2111,2117,2
242,2093,2110,2117,2
242,2094,2111,2117,2
242,2093,2112,2118,2
242,2094,2112,2118,2
242,2097,2114,2119,2
242,2097,2115,2119,2
242,2097,2114,2119,2
242,2095,2114,2116,2
242,2092,2112,2114,2
242,2091,2110,2113,2
242,2093,2111,2113,2
242,2092,2111,2115,2
242,2092,2111,2115,2
242,2092,2112,2116,2
242,2094,2112,2116,2
242,2094,2114,2117,2
242,2093,2113,2117,2
242,2093,2111,2116,2
242,2094,2112,2116,2
242,2094,2114,2117,2
242,2096,2114,2117,2
242,2096,2114,2120,2
242,2095,2114,2120,2
242,2096,2112,2120,2
242,2095,2112,2118,2
242,2092,2110,2118,2
242,2091,2110,2114,2
242,2091,2111,2114,2
242,2093,2111,2114,2
242,2094,2113,2115,2
242,2093,2112,2116,2
242,2094,2111,2116,2
242,2094,2112,2116,2
242,2094,2112,2115,2
242,2093,2113,2115,2
242,2094,2113,2117,2
242,2094,2113,2118,2
242,2095,2113,2119,2
242,2097,2115,2120,2
242,2097,2115,2119,2
242,2095,2115,2119,2
242,2095,2112,2117,2
242,2092,2111,2117,2
242,2092,2111,2115,2
242,2091,2111,2116,2
242,2092,2110,2116,2
242,2093,2111,2116,2
242,2093,2112,2117,2
242,2094,2112,2117,2
242,2094,2112,2117,2
242,2092,2111,2116,2
242,2094,2111,2116,2
242,2096,2112,2117,2
242,2095,2112,2119,2
242,2096,2112,2119,2
242,2096,2115,2120,2
242,2097,2115,2120,2
242,2096,2115,2118,2
242,2094,2112,2116,2
242,2093,2110,2114,2
242,2093,2110,2114,2
242,2093,2112,2115,2
242,2093,2112,2115,2
242,2093,2112,2116,2
242,2093,2113,2117,2
242,2094,2112,2117,2
242,2095,2113,2116,2
242,2093,2112,2116,2
242,2093,2112,2116,2
242,2093,2114,2117,2
242,2095,2115,2117,2
242,2097,2117,2118,2
242,2096,2116,2118,2
242,2097,2114,2118,2
242,2094,2114,2117,2
242,2094,2111,2115,2
242,2092,2110,2115,2
242,2092,2110,2115,2
242,2092,2111,2116,2
242,2093,2111,2116,2
242,2094,2113,2116,2
242,2093,2113,2116,2
242,2093,2113,2116,2
242,2093,2113,2116,2
242,2092,2112,2116,2
242,2093,2113,2116,2
242,2093,2113,2117,2
242,2095,2113,2118,2
242,2097,2115,2119,2
242,2097,2115,2119,2
242,2096,2114,2119,2
242,2094,2114,2115,2
242,2092,2112,2114,2
242,2092,2111,2113,2
242,2094,2112,2114,2
242,2093,2112,2116,2
242,2093,2112,2116,2
242,2093,2113,2116,2
242,2094,2113,2116,2
242,2094,2113,2116,2
242,2092,2112,2115,2
242,2093,2111,2115,2
242,2095,2112,2116,2
242,2095,2114,2117,2
242,2097,2115,2117,2
242,2097,2115,2119,2
242,2097,2115,2119,2
242,2097,2113,2119,2
242,2096,2113,2116,2
242,2093,2111,2114,2
242,2091,2111,2114,2
242,2091,2111,2115,2
242,2092,2111,2115,2
242,2093,2112,2115,2
242,2092,2112,2116,2
242,2094,2112,2116,2
242,2095,2113,2116,2
242,2093,2111,2115,2
242,2093,2112,2115,2
242,2094,2112,2117,2
242,2094,2113,2118,2
242,2096,2113,2119,2
242,2098,2115,2120,2
242,2097,2115,2119,2
242,2094,2115,2119,2
242,2094,2112,2116,2
242,2091,2110,2116,2
242,2092,2110,2116,2
242,2091,2110,2116,2
242,2092,2110,2116,2
242,2093,2112,2116,2
242,2093,2113,2116,2
242,2094,2112,2116,2
242,2094,2112,2116,2
242,2093,2111,2116,2
242,2093,2111,2116,2
242,2096,2113,2117,2
242,2096,2114,2119,2
242,2097,2114,2119,2
242,2097,2116,2119,2
242,2097,2115,2119,2
242,2095,2115,2117,2
242,2092,2112,2115,2
242,2092,2110,2114,2
242,2093,2111,2114,2
242,2093,2112,2115,2
242,2094,2112,2115,2
242,2095,2112,2116,2
242,2094,2112,2116,2
242,2094,2111,2116,2
242,2095,2112,2116,2
242,2093,2111,2116,2
242,2093,2111,2116,2
242,2093,2113,2118,2
242,2096,2114,2118,2
242,2097,2116,2119,2
242,2096,2116,2120,2
242,2096,2113,2119,2
242,2093,2113,2117,2
242,2093,2111,2115,2
242,2091,2111,2115,2
242,2092,2111,2115,2
242,2092,2111,2116,2
242,2093,2111,2116,2
242,2095,2113,2117,2
242,2095,2113,2117,2
242,2093,2113,2117,2
242,2093,2112,2116,2
242,2093,2112,2116,2
242,2094,2113,2116,2
242,2094,2113,2117,2
242,2096,2113,2118,2
242,2098,2115,2118,2
242,2098,2116,2118,2
242,2095,2114,2118,2
242,2093,2114,2114,2
242,2091,2112,2113,2
242,2091,2112,2113,2
242,2093,2113,2114,2
242,2093,2112,2115,2
242,2093,2112,2115,2
242,2093,2113,2116,2
242,2094,2112,2116,2
242,2094,2113,2116,2
242,2093,2112,2116,2
242,2093,2111,2116,2
242,2095,2112,2117,2
242,2095,2114,2118,2
242,2097,2115,2118,2
242,2097,2115,2120,2
242,2096,2115,2119,2
242,2095,2112,2118,2
242,2094,2112,2116,2
242,2091,2110,2115,2
242,2091,2110,2115,2
242,2091,2112,2115,2
242,2093,2112,2115,2
242,2094,2113,2115,2
242,2093,2113,2116,2
242,2095,2112,2116,2
242,2096,2113,2116,2
242,2094,2112,2116,2
242,2094,2112,2116,2
242,2095,2112,2118,2
242,2095,2113,2119,2
242,2096,2113,2119,2
242,2098,2115,2119,2
242,2097,2114,2117,2
242,2094,2114,2117,2
242,2094,2111,2115,2
242,2092,2111,2115,2
242,2093,2111,2115,2
242,2092,2111,2115,2
242,2093,2111,2115,2
242,2094,2112,2115,2
242,2094,2113,2116,2
242,2094,2112,2116,2
242,2094,2112,2115,2
242,2093,2111,2116,2
242,2094,2111,2117,2
