Group ID,Avg Short,Avg Long1,Avg Long2,Emitter
5,2014,2032,2034,2
5,2012,2030,2032,1
5,2017,2036,2037,2
245,2002,2034,2023,1
245,2005,2034,2025,1
245,2005,2034,2028,1
245,2008,2030,2028,1
245,2013,2034,2030,1
245,2010,2033,2033,1
245,2013,2032,2033,1
245,2013,2032,2032,1
245,2010,2030,2032,1
245,2012,2030,2032,1
245,2012,2032,2034,1
245,2015,2031,2035,1
245,2021,2037,2037,1
245,2017,2036,2038,1
245,2016,2035,2038,1
245,2012,2035,2032,1
245,2012,2027,2029,1
245,2010,2024,2026,1
245,2015,2030,2029,1
245,2011,2029,2032,1
245,2013,2030,2032,1
245,2013,2030,2032,1
245,2013,2032,2032,1
245,2013,2032,2033,1
245,2013,2031,2033,1
245,2012,2027,2031,1
245,2017,2032,2032,1
245,2014,2032,2036,1
245,2015,2035,2036,1
245,2016,2035,2038,1
245,2016,2037,2038,1
245,2015,2033,2038,1
245,2013,2036,2034,1
245,2006,2027,2031,1
245,2007,2028,2027,1
245,2012,2028,2030,1
245,2012,2031,2030,1
245,2012,2031,2031,1
245,2012,2031,2032,1
245,2013,2029,2032,1
245,2016,2034,2033,1
245,2011,2027,2033,1
245,2012,2028,2030,1
245,2013,2028,2032,1
245,2013,2034,2035,1
245,2017,2035,2035,1
245,2020,2040,2037,1
245,2017,2036,2038,1
245,2019,2028,2036,1
245,2009,2031,2032,1
245,2009,2027,2032,1
245,2009,2027,2028,1
245,2009,2031,2030,1
245,2012,2030,2030,1
245,2015,2035,2031,1
245,2011,2032,2033,1
245,2013,2033,2033,1
245,2012,2033,2033,1
245,2012,2031,2031,1
245,2011,2031,2031,1
245,2014,2031,2034,1
245,2012,2033,2037,1
245,2016,2030,2037,1
245,2017,2037,2038,1
245,2017,2034,2036,1
245,2011,2034,2036,1
245,2011,2028,2031,1
245,2006,2025,2031,1
245,2009,2029,2030,1
245,2007,2028,2032,1
245,2012,2024,2032,1
245,2012,2031,2032,1
245,2012,2034,2033,1
245,2013,2034,2033,1
245,2013,2034,2032,1
245,2008,2031,2032,1
245,2011,2029,2031,1
245,2017,2035,2034,1
245,2015,2035,2038,1
245,2016,2035,2038,1
245,2016,2038,2038,1
245,2017,2036,2038,1
245,2015,2036,2034,1
245,2008,2028,2030,1
245,2008,2022,2026,1
245,2011,2027,2028,1
245,2011,2032,2029,1
245,2011,2032,2029,1
245,2013,2032,2030,1
245,2013,2033,2032,1
245,2016,2029,2032,1
245,2018,2033,2032,1
245,2012,2030,2032,1
245,2012,2030,2032,1
245,2012,2035,2034,1
245,2016,2036,2034,1
245,2018,2036,2038,1
245,2016,2036,2039,1
245,2019,2030,2038,1
245,2009,2034,2035,1
245,2009,2027,2028,1
245,2005,2028,2028,1
245,2008,2028,2031,1
245,2008,2030,2032,1
245,2010,2027,2032,1
245,2015,2033,2033,1
245,2012,2032,2034,1
245,2014,2030,2034,1
245,2014,2030,2030,1
245,2010,2030,2030,1
245,2013,2030,2033,1
245,2011,2032,2036,1
245,2015,2031,2036,1
245,2021,2038,2038,1
245,2017,2036,2037,1
245,2013,2034,2037,1
245,2010,2034,2030,1
245,2010,2026,2028,1
245,2010,2025,2025,1
245,2014,2031,2028,1
245,2011,2027,2030,1
245,2013,2029,2030,1
245,2013,2029,2032,1
245,2014,2030,2032,1
245,2013,2030,2032,1
245,2013,2029,2031,1
245,2014,2027,2029,1
245,2019,2033,2032,1
245,2016,2033,2036,1
245,2019,2036,2036,1
245,2019,2036,2038,1
245,2019,2037,2037,1
245,2014,2031,2037,1
245,2012,2033,2032,1
245,2005,2026,2031,1
245,2007,2023,2029,1
245,2010,2030,2032,1
245,2010,2032,2032,1
245,2011,2032,2031,1
245,2011,2032,2033,1
245,2013,2030,2033,1
245,2014,2035,2032,1
245,2009,2032,2032,1
245,2012,2033,2030,1
245,2014,2033,2034,1
245,2014,2037,2036,1
245,2017,2037,2036,1
245,2020,2042,2038,1
245,2016,2037,2038,1
245,2015,2028,2035,1
245,2008,2029,2031,1
245,2008,2028,2031,1
245,2009,2028,2030,1
245,2009,2032,2031,1
245,2011,2030,2031,1
245,2014,2035,2032,1
245,2011,2032,2034,1
245,2013,2031,2034,1
245,2011,2031,2032,1
245,2011,2029,2032,1
245,2013,2031,2032,1
245,2017,2031,2035,1
245,2015,2032,2038,1
245,2019,2029,2038,1
245,2018,2036,2039,1
245,2018,2035,2039,1
245,2013,2035,2033,1
245,2013,2027,2029,1
245,2008,2026,2029,1
245,2012,2031,2030,1
245,2009,2030,2032,1
245,2011,2031,2031,1
245,2013,2031,2032,1
245,2013,2034,2032,1
245,2012,2032,2032,1
245,2011,2032,2030,1
245,2006,2031,2031,1
245,2010,2029,2031,1
245,2017,2036,2034,1
245,2015,2034,2038,1
245,2017,2034,2038,1
245,2017,2037,2038,1
245,2015,2034,2038,1
245,2012,2036,2034,1
245,2005,2028,2031,1
245,2008,2023,2028,1
245,2011,2030,2030,1
245,2011,2033,2030,1
245,2011,2033,2030,1
245,2013,2033,2033,1
245,2010,2035,2034,1
245,2010,2029,2033,1
245,2013,2033,2032,1
245,2009,2031,2034,1
245,2012,2031,2034,1
245,2012,2036,2036,1
245,2017,2037,2036,1
245,2019,2037,2039,1
245,2016,2035,2039,1
245,2018,2027,2036,1
245,2009,2030,2031,1
245,2009,2024,2028,1
245,2009,2027,2028,1
245,2010,2027,2032,1
245,2010,2029,2032,1
245,2011,2027,2031,1
245,2016,2033,2033,1
245,2013,2032,2032,1
245,2014,2030,2032,1
245,2014,2030,2030,1
245,2013,2031,2030,1
245,2015,2031,2034,1
245,2013,2033,2037,1
245,2016,2031,2037,1
245,2021,2038,2039,1
245,2017,2035,2035,1
245,2010,2032,2035,1
245,2008,2032,2028,1
245,2008,2026,2028,1
245,2010,2026,2028,1
245,2014,2033,2030,1
245,2010,2030,2032,1
245,2013,2032,2031,1
245,2013,2032,2033,1
245,2013,2032,2033,1
245,2012,2032,2032,1
245,2012,2029,2032,1
245,2014,2028,2031,1
245,2019,2035,2034,1
245,2016,2035,2038,1
245,2020,2037,2038,1
245,2019,2037,2039,1
245,2019,2035,2036,1
245,2011,2029,2036,1
245,2010,2030,2032,1
245,2005,2027,2033,1
245,2009,2031,2032,1
245,2011,2031,2033,1
245,2011,2032,2033,1
245,2012,2032,2034,1
245,2012,2034,2034,1
245,2013,2031,2033,1
245,2015,2035,2033,1
245,2010,2028,2034,1
245,2013,2032,2033,1
245,2014,2032,2036,1
245,2014,2036,2038,1
245,2017,2036,2038,1
245,2018,2041,2038,1
245,2013,2036,2035,1
245,2011,2026,2031,1
245,2008,2028,2029,1
245,2008,2031,2029,1
245,2010,2031,2032,1
245,2010,2033,2032,1
245,2012,2031,2032,1
245,2016,2036,2033,1
245,2012,2032,2034,1
245,2013,2031,2033,1
245,2011,2031,2033,1
245,2011,2031,2034,1
245,2014,2033,2034,1
245,2017,2033,2037,1
245,2015,2034,2039,1
245,2018,2030,2038,1
245,2014,2036,2038,1
245,2014,2033,2038,1
245,2009,2033,2030,1
245,2009,2027,2028,1
245,2010,2027,2028,1
245,2013,2033,2030,1
245,2010,2031,2031,1
245,2015,2026,2030,1
245,2015,2032,2032,1
245,2015,2034,2032,1
245,2013,2033,2032,1
245,2013,2033,2030,1
245,2010,2031,2033,1
245,2013,2030,2033,1
245,2019,2037,2036,1
245,2017,2036,2038,1
245,2017,2036,2038,1
245,2017,2038,2036,1
245,2012,2033,2036,1
245,2010,2033,2028,1
245,2004,2027,2028,1
245,2008,2024,2028,1
245,2011,2031,2031,1
245,2011,2029,2032,1
245,2012,2031,2032,1
245,2013,2031,2035,1
245,2013,2031,2035,1
245,2013,2027,2033,1
245,2016,2031,2033,1
245,2012,2029,2036,1
245,2016,2035,2036,1
245,2016,2035,2039,1
245,2018,2037,2039,1
245,2019,2037,2040,1
245,2019,2035,2037,1
245,2016,2027,2034,1
245,2016,2029,2030,1
245,2009,2026,2030,1
245,2010,2030,2030,1
245,2010,2030,2032,1
245,2010,2031,2033,1
245,2012,2030,2033,1
245,2015,2036,2033,1
245,2011,2030,2033,1
245,2011,2029,2031,1
245,2011,2029,2031,1
245,2012,2032,2031,1
245,2015,2032,2035,1
245,2015,2036,2037,1
245,2017,2035,2037,1
245,2021,2041,2039,1
245,2016,2037,2033,1
245,2014,2028,2033,1
245,2011,2028,2027,1
245,2011,2028,2029,1
245,2013,2028,2029,1
245,2016,2034,2030,1
245,2012,2032,2032,1
245,2014,2033,2032,1
245,2014,2033,2033,1
245,2014,2028,2031,1
245,2011,2028,2031,1
245,2011,2030,2032,1
245,2014,2030,2032,1
245,2020,2036,2035,1
245,2017,2034,2038,1
245,2020,2036,2038,1
245,2017,2036,2037,1
245,2017,2032,2033,1
245,2008,2027,2033,1
245,2010,2030,2030,1
245,2006,2027,2032,1
245,2009,2024,2032,1
245,2011,2031,2032,1
245,2011,2033,2032,1
245,2012,2033,2033,1
245,2012,2034,2033,1
245,2012,2030,2033,1
245,2014,2034,2032,1
245,2010,2029,2034,1
245,2014,2033,2034,1
245,2015,2033,2037,1
245,2015,2038,2038,1
245,2018,2037,2038,1
245,2017,2037,2036,1
245,2011,2032,2032,1
245,2011,2024,2028,1
245,2010,2027,2028,1
245,2010,2026,2032,1
245,2011,2026,2032,1
245,2011,2028,2032,1
245,2012,2029,2032,1
245,2015,2035,2033,1
245,2012,2033,2034,1
245,2014,2026,2032,1
245,2013,2030,2031,1
245,2013,2034,2033,1
245,2016,2036,2033,1
245,2018,2036,2037,1
245,2015,2037,2038,1
245,2017,2033,2038,1
245,2018,2038,2037,1
245,2011,2031,2028,1
245,2005,2031,2028,1
245,2005,2028,2028,1
245,2009,2030,2028,1
245,2012,2030,2032,1
245,2009,2030,2033,1
245,2012,2027,2032,1
245,2013,2033,2033,1
245,2013,2030,2032,1
245,2011,2030,2032,1
245,2012,2030,2032,1
245,2012,2033,2035,1
245,2015,2032,2035,1
245,2021,2039,2038,1
245,2018,2038,2040,1
245,2016,2038,2040,1
245,2016,2035,2036,1
245,2009,2029,2036,1
245,2008,2029,2028,1
245,2004,2029,2030,1
245,2010,2026,2030,1
245,2015,2032,2031,1
245,2011,2029,2033,1
245,2012,2032,2033,1
245,2012,2032,2034,1
245,2012,2031,2033,1
245,2012,2027,2031,1
245,2017,2033,2032,1
245,2014,2033,2036,1
245,2018,2037,2036,1
245,2018,2037,2039,1
245,2019,2037,2039,1
245,2018,2037,2038,1
245,2013,2034,2035,1
245,2010,2026,2030,1
245,2013,2028,2028,1
245,2009,2027,2031,1
245,2011,2030,2031,1
245,2011,2030,2032,1
245,2011,2031,2033,1
245,2013,2030,2033,1
245,2016,2036,2034,1
245,2012,2032,2034,1
245,2012,2032,2031,1
245,2012,2032,2032,1
245,2014,2035,2032,1
245,2017,2035,2037,1
245,2017,2037,2039,1
245,2019,2035,2039,1
245,2020,2041,2039,1
245,2014,2035,2030,1
245,2012,2027,2030,1
245,2011,2027,2028,1
245,2011,2030,2031,1
245,2013,2029,2031,1
245,2015,2034,2032,1
245,2011,2032,2034,1
245,2013,2033,2034,1
245,2012,2033,2034,1
245,2012,2031,2034,1
245,2012,2031,2032,1
245,2012,2032,2034,1
245,2014,2032,2034,1
245,2020,2039,2038,1
245,2017,2037,2041,1
245,2020,2036,2040,1
245,2016,2036,2036,1
245,2016,2028,2032,1
245,2009,2025,2032,1
245,2012,2029,2031,1
245,2009,2029,2033,1
245,2011,2031,2033,1
245,2012,2031,2033,1
245,2012,2034,2033,1
245,2012,2034,2034,1
245,2012,2033,2034,1
245,2012,2029,2032,1
245,2016,2032,2032,1
245,2013,2031,2035,1
245,2016,2036,2036,1
245,2017,2036,2039,1
245,2017,2038,2040,1
245,2017,2035,2040,1
245,2015,2038,2036,1
245,2008,2032,2032,1
245,2007,2024,2028,1
245,2011,2029,2029,1
245,2011,2033,2029,1
245,2011,2033,2032,1
245,2011,2032,2032,1
245,2013,2031,2032,1
245,2016,2036,2033,1
245,2012,2030,2033,1
245,2012,2030,2031,1
245,2012,2030,2033,1
245,2012,2035,2035,1
245,2017,2036,2035,1
245,2020,2042,2037,1
245,2017,2040,2038,1
245,2019,2032,2037,1
245,2010,2035,2034,1
245,2010,2029,2034,1
245,2009,2029,2028,1
245,2009,2031,2030,1
245,2013,2030,2030,1
245,2015,2035,2031,1
245,2011,2032,2033,1
245,2013,2034,2033,1
245,2012,2034,2034,1
245,2012,2033,2032,1
245,2010,2033,2032,1
245,2013,2033,2034,1
245,2011,2034,2037,1
245,2017,2032,2037,1
245,2022,2039,2039,1
245,2018,2037,2039,1
245,2014,2037,2039,1
245,2014,2032,2034,1
245,2008,2028,2034,1
245,2010,2028,2029,1
245,2007,2028,2032,1
245,2011,2024,2032,1
245,2012,2031,2032,1
245,2012,2034,2033,1
245,2014,2034,2033,1
245,2014,2034,2033,1
245,2010,2032,2032,1
245,2013,2029,2030,1
245,2019,2035,2033,1
245,2016,2034,2038,1
245,2018,2034,2038,1
245,2018,2038,2039,1
245,2019,2037,2039,1
245,2018,2037,2036,1
245,2011,2030,2032,1
245,2010,2022,2027,1
245,2011,2027,2028,1
245,2011,2033,2030,1
245,2012,2033,2030,1
245,2013,2033,2032,1
245,2010,2033,2034,1
245,2014,2029,2034,1
245,2017,2034,2034,1
245,2012,2030,2032,1
245,2012,2030,2032,1
245,2012,2034,2034,1
245,2016,2035,2034,1
245,2019,2035,2038,1
245,2016,2034,2040,1
245,2020,2029,2039,1
245,2012,2034,2037,1
245,2012,2028,2029,1
245,2006,2028,2029,1
245,2009,2028,2030,1
245,2009,2031,2032,1
245,2011,2028,2032,1
245,2016,2034,2033,1
245,2012,2033,2034,1
245,2015,2032,2034,1
245,2015,2032,2033,1
245,2011,2031,2033,1
245,2013,2031,2033,1
245,2011,2033,2036,1
245,2015,2032,2036,1
245,2021,2039,2039,1
245,2018,2037,2040,1
245,2016,2036,2040,1
245,2012,2036,2034,1
245,2012,2028,2030,1
245,2011,2026,2027,1
245,2016,2031,2030,1
245,2013,2031,2032,1
245,2015,2032,2032,1
245,2015,2032,2033,1
245,2015,2033,2033,1
245,2015,2033,2034,1
245,2010,2032,2034,1
245,2010,2028,2032,1
245,2016,2034,2034,1
245,2013,2033,2038,1
245,2017,2036,2038,1
245,2018,2036,2040,1
245,2018,2038,2039,1
245,2018,2033,2037,1
245,2017,2035,2034,1
245,2009,2029,2032,1
245,2010,2031,2029,1
245,2010,2031,2032,1
245,2012,2031,2032,1
245,2013,2031,2033,1
245,2010,2031,2034,1
245,2013,2029,2034,1
245,2017,2034,2035,1
245,2012,2031,2032,1
245,2011,2033,2032,1
245,2013,2033,2035,1
245,2013,2036,2037,1
245,2016,2035,2038,1
245,2021,2041,2041,1
245,2018,2037,2041,1
245,2018,2031,2038,1
245,2018,2031,2029,1
245,2009,2029,2029,1
245,2010,2029,2029,1
245,2010,2031,2031,1
245,2012,2028,2031,1
245,2016,2034,2032,1
245,2012,2032,2035,1
245,2012,2033,2035,1
245,2011,2033,2034,1
245,2011,2031,2033,1
245,2012,2030,2031,1
245,2017,2036,2033,1
245,2015,2032,2036,1
245,2019,2036,2037,1
245,2020,2036,2039,1
245,2020,2036,2039,1
245,2016,2036,2035,1
245,2016,2028,2031,1
245,2013,2024,2027,1
245,2017,2029,2029,1
245,2014,2029,2032,1
245,2012,2031,2032,1
245,2012,2031,2033,1
245,2012,2033,2034,1
245,2013,2031,2034,1
245,2014,2036,2034,1
245,2009,2029,2034,1
245,2012,2033,2033,1
245,2012,2033,2036,1
245,2016,2036,2036,1
245,2018,2036,2039,1
245,2018,2038,2040,1
245,2019,2034,2039,1
245,2018,2037,2036,1
245,2010,2031,2029,1
245,2010,2029,2029,1
245,2011,2029,2031,1
245,2011,2032,2032,1
245,2012,2030,2032,1
245,2015,2035,2033,1
245,2012,2033,2035,1
245,2013,2033,2034,1
245,2011,2033,2034,1
245,2011,2033,2034,1
245,2013,2033,2035,1
245,2013,2036,2038,1
245,2016,2035,2038,1
245,2021,2041,2039,1
245,2018,2040,2039,1
245,2019,2033,2039,1
245,2013,2033,2032,1
245,2013,2027,2029,1
245,2010,2027,2029,1
245,2014,2033,2031,1
245,2011,2030,2033,1
245,2013,2031,2032,1
245,2016,2031,2034,1
245,2016,2033,2034,1
245,2015,2033,2033,1
245,2015,2031,2032,1
245,2014,2030,2030,1
245,2018,2036,2033,1
245,2015,2034,2037,1
245,2019,2037,2038,1
245,2019,2037,2040,1
245,2019,2039,2039,1
245,2015,2034,2039,1
245,2013,2035,2034,1
245,2006,2029,2032,1
245,2010,2025,2030,1
245,2012,2032,2032,1
245,2012,2034,2032,1
245,2012,2034,2033,1
245,2012,2034,2034,1
245,2013,2032,2034,1
245,2015,2037,2034,1
245,2010,2032,2034,1
245,2013,2033,2032,1
245,2014,2033,2035,1
245,2014,2037,2037,1
245,2018,2037,2037,1
245,2021,2042,2038,1
245,2017,2039,2038,1
245,2017,2029,2035,1
245,2010,2030,2031,1
245,2010,2028,2031,1
245,2011,2028,2030,1
245,2011,2032,2032,1
245,2012,2030,2032,1
245,2016,2035,2032,1
245,2012,2034,2035,1
245,2014,2033,2035,1
245,2012,2033,2032,1
245,2012,2030,2032,1
245,2014,2031,2032,1
245,2018,2037,2034,1
245,2016,2037,2038,1
245,2018,2039,2038,1
245,2018,2039,2040,1
245,2018,2037,2040,1
245,2014,2037,2033,1
245,2014,2028,2030,1
245,2011,2025,2027,1
245,2016,2030,2030,1
245,2013,2030,2032,1
245,2015,2031,2032,1
245,2015,2031,2033,1
245,2015,2033,2034,1
245,2014,2031,2034,1
245,2015,2035,2033,1
245,2010,2032,2034,1
245,2013,2036,2034,1
245,2018,2036,2037,1
245,2018,2040,2037,1
245,2019,2040,2040,1
245,2019,2041,2040,1
245,2018,2035,2038,1
245,2016,2037,2035,1
245,2008,2029,2032,1
245,2009,2030,2029,1
245,2010,2030,2032,1
245,2010,2033,2033,1
245,2012,2032,2033,1
245,2015,2037,2034,1
245,2012,2036,2035,1
245,2015,2029,2033,1
245,2012,2033,2033,1
245,2012,2035,2033,1
245,2014,2035,2035,1
245,2014,2037,2037,1
245,2018,2036,2037,1
245,2022,2041,2039,1
245,2019,2038,2040,1
245,2019,2032,2038,1
245,2013,2032,2030,1
245,2013,2028,2029,1
245,2011,2029,2029,1
245,2014,2035,2032,1
245,2011,2035,2033,1
245,2013,2029,2032,1
245,2015,2034,2034,1
245,2015,2035,2034,1
245,2014,2035,2033,1
245,2014,2032,2032,1
245,2013,2031,2032,1
245,2018,2037,2034,1
245,2016,2036,2038,1
245,2019,2038,2038,1
245,2019,2038,2040,1
245,2019,2038,2038,1
245,2013,2032,2038,1
245,2012,2033,2033,1
245,2006,2029,2033,1
245,2012,2026,2031,1
245,2013,2032,2032,1
245,2013,2034,2032,1
245,2013,2034,2033,1
245,2013,2035,2034,1
245,2015,2032,2033,1
245,2017,2036,2033,1
245,2011,2031,2033,1
245,2014,2034,2032,1
245,2016,2034,2035,1
245,2016,2038,2037,1
245,2019,2038,2037,1
245,2021,2044,2039,1
245,2017,2038,2038,1
245,2016,2028,2035,1
245,2009,2029,2032,1
245,2009,2029,2032,1
245,2012,2029,2034,1
245,2012,2032,2034,1
245,2012,2030,2033,1
245,2016,2035,2034,1
245,2013,2032,2036,1
245,2015,2032,2035,1
245,2012,2032,2032,1
245,2012,2032,2033,1
245,2015,2033,2033,1
245,2019,2039,2035,1
245,2016,2038,2038,1
245,2020,2034,2038,1
245,2019,2040,2039,1
245,2019,2036,2039,1
245,2013,2036,2032,1
245,2013,2028,2030,1
245,2011,2027,2027,1
245,2016,2033,2030,1
245,2013,2031,2032,1
245,2015,2032,2032,1
245,2015,2032,2034,1
245,2015,2034,2034,1
245,2014,2032,2034,1
245,2014,2036,2033,1
245,2009,2031,2034,1
245,2016,2028,2034,1
245,2019,2036,2037,1
245,2019,2040,2037,1
245,2020,2040,2040,1
245,2020,2040,2039,1
245,2017,2034,2037,1
245,2015,2036,2033,1
245,2007,2026,2032,1
245,2010,2029,2029,1
245,2011,2029,2032,1
245,2011,2031,2032,1
245,2012,2031,2032,1
245,2016,2036,2033,1
245,2012,2032,2034,1
245,2013,2031,2033,1
245,2012,2031,2033,1
245,2012,2034,2033,1
245,2014,2034,2036,1
245,2014,2038,2038,1
245,2017,2037,2038,1
245,2021,2042,2040,1
245,2018,2036,2040,1
245,2017,2029,2037,1
245,2010,2029,2034,1
245,2010,2027,2033,1
245,2012,2028,2033,1
245,2015,2035,2034,1
245,2011,2033,2035,1
245,2016,2028,2034,1
245,2016,2034,2035,1
245,2016,2035,2035,1
245,2015,2035,2034,1
245,2015,2032,2034,1
245,2016,2031,2034,1
245,2021,2037,2036,1
245,2017,2036,2039,1
245,2020,2038,2039,1
245,2019,2038,2040,1
245,2019,2037,2037,1
245,2011,2031,2037,1
245,2010,2032,2032,1
245,2005,2027,2033,1
245,2009,2024,2032,1
245,2012,2031,2033,1
245,2012,2033,2033,1
245,2013,2033,2034,1
245,2013,2034,2035,1
245,2013,2031,2034,1
245,2015,2036,2034,1
245,2010,2031,2035,1
245,2013,2034,2035,1
245,2015,2034,2038,1
245,2015,2038,2039,1
245,2018,2038,2039,1
245,2020,2043,2039,1
245,2015,2036,2037,1
245,2012,2026,2033,1
245,2009,2028,2031,1
245,2009,2031,2031,1
245,2011,2031,2033,1
245,2011,2033,2034,1
245,2012,2030,2033,1
245,2017,2036,2034,1
245,2014,2031,2036,1
245,2015,2031,2034,1
245,2012,2031,2032,1
245,2012,2032,2033,1
245,2015,2033,2033,1
245,2019,2039,2036,1
245,2016,2036,2039,1
245,2018,2038,2039,1
245,2015,2038,2040,1
245,2015,2033,2040,1
245,2011,2033,2032,1
245,2011,2027,2030,1
245,2013,2027,2028,1
245,2016,2033,2031,1
245,2012,2029,2033,1
245,2014,2031,2032,1
245,2014,2031,2034,1
245,2014,2033,2034,1
245,2013,2031,2034,1
245,2014,2035,2033,1
245,2010,2034,2035,1
245,2015,2031,2035,1
245,2018,2038,2038,1
245,2018,2041,2038,1
245,2019,2041,2040,1
245,2019,2039,2038,1
245,2014,2033,2038,1
245,2014,2034,2033,1
245,2007,2028,2033,1
245,2010,2032,2031,1
245,2011,2032,2033,1
245,2011,2033,2033,1
245,2012,2033,2033,1
245,2015,2038,2034,1
245,2012,2033,2035,1
245,2014,2027,2033,1
245,2014,2031,2033,1
245,2014,2035,2033,1
245,2016,2035,2036,1
245,2016,2038,2038,1
245,2018,2036,2038,1
245,2022,2041,2039,1
245,2018,2034,2038,1
245,2016,2027,2034,1
245,2012,2027,2027,1
245,2012,2027,2028,1
245,2014,2028,2028,1
245,2016,2035,2030,1
245,2012,2032,2032,1
245,2014,2028,2032,1
245,2014,2034,2034,1
245,2014,2034,2034,1
245,2013,2034,2032,1
245,2013,2031,2033,1
245,2014,2031,2033,1
245,2019,2037,2036,1
245,2016,2034,2039,1
245,2020,2037,2039,1
245,2018,2037,2039,1
245,2018,2034,2036,1
245,2010,2028,2036,1
245,2010,2030,2032,1
245,2006,2027,2033,1
245,2013,2024,2033,1
245,2013,2031,2034,1
245,2013,2034,2034,1
245,2014,2034,2035,1
245,2014,2035,2035,1
245,2013,2032,2035,1
245,2014,2036,2034,1
245,2009,2033,2035,1
245,2013,2037,2035,1
245,2018,2037,2038,1
245,2018,2040,2039,1
245,2019,2039,2039,1
245,2019,2039,2040,1
245,2014,2033,2036,1
245,2012,2024,2031,1
245,2010,2027,2029,1
245,2010,2032,2029,1
245,2011,2032,2032,1
245,2011,2033,2032,1
245,2012,2032,2032,1
245,2015,2037,2033,1
245,2012,2036,2034,1
245,2013,2033,2033,1
245,2012,2033,2033,1
245,2012,2035,2034,1
245,2015,2037,2034,1
245,2018,2037,2038,1
245,2015,2037,2041,1
245,2018,2033,2040,1
245,2014,2039,2039,1
245,2014,2034,2039,1
245,2010,2034,2030,1
245,2010,2028,2030,1
245,2012,2028,2030,1
245,2015,2034,2032,1
245,2011,2032,2033,1
245,2014,2028,2032,1
245,2015,2034,2034,1
245,2015,2035,2034,1
245,2013,2033,2034,1
245,2014,2033,2032,1
245,2011,2033,2035,1
245,2015,2031,2035,1
245,2018,2038,2038,1
245,2018,2036,2040,1
245,2018,2036,2040,1
245,2018,2036,2038,1
245,2012,2030,2038,1
245,2012,2031,2033,1
245,2006,2027,2033,1
245,2009,2024,2032,1
245,2012,2032,2033,1
245,2012,2034,2033,1
245,2014,2034,2033,1
245,2016,2034,2035,1
245,2012,2033,2035,1
245,2013,2027,2033,1
245,2018,2032,2034,1
245,2014,2031,2038,1
245,2017,2031,2038,1
245,2017,2037,2039,1
245,2020,2037,2039,1
245,2021,2037,2040,1
245,2016,2034,2038,1
245,2014,2025,2034,1
245,2009,2027,2031,1
245,2009,2030,2032,1
245,2012,2032,2032,1
245,2013,2032,2033,1
245,2010,2033,2034,1
245,2011,2030,2034,1
245,2016,2036,2035,1
245,2012,2033,2032,1
245,2009,2033,2032,1
245,2009,2034,2033,1
245,2014,2035,2033,1
245,2018,2035,2038,1
245,2015,2034,2040,1
245,2020,2031,2040,1
245,2017,2038,2040,1
245,2017,2035,2035,1
245,2009,2031,2035,1
245,2009,2031,2030,1
245,2009,2031,2032,1
245,2013,2028,2033,1
245,2017,2034,2034,1
245,2013,2031,2035,1
245,2014,2031,2035,1
245,2014,2033,2035,1
245,2013,2031,2035,1
245,2014,2031,2032,1
245,2010,2029,2034,1
245,2017,2027,2034,1
245,2020,2035,2037,1
245,2020,2040,2039,1
245,2019,2040,2039,1
245,2017,2040,2038,1
245,2011,2035,2034,1
245,2010,2027,2029,1
245,2014,2030,2029,1
245,2011,2029,2032,1
245,2012,2029,2032,1
245,2012,2031,2032,1
245,2013,2031,2032,1
245,2016,2031,2035,1
245,2012,2029,2035,1
245,2013,2024,2033,1
245,2013,2029,2032,1
245,2013,2035,2034,1
245,2016,2037,2034,1
245,2018,2037,2038,1
245,2016,2038,2040,1
245,2018,2034,2040,1
245,2019,2039,2038,1
245,2012,2033,2029,1
245,2006,2033,2029,1
245,2006,2030,2029,1
245,2010,2031,2029,1
245,2012,2031,2032,1
245,2009,2029,2033,1
245,2012,2026,2033,1
245,2013,2033,2034,1
245,2013,2030,2033,1
245,2011,2030,2033,1
245,2013,2030,2033,1
245,2013,2033,2036,1
245,2016,2033,2036,1
245,2021,2040,2039,1
245,2018,2039,2040,1
245,2017,2039,2040,1
245,2017,2036,2036,1
245,2010,2031,2036,1
245,2010,2031,2029,1
245,2005,2029,2031,1
245,2011,2026,2031,1
245,2012,2032,2032,1
245,2012,2030,2033,1
245,2014,2032,2033,1
245,2014,2032,2034,1
245,2014,2031,2033,1
245,2014,2028,2031,1
245,2019,2034,2033,1
245,2016,2034,2037,1
245,2020,2037,2037,1
245,2020,2037,2040,1
245,2021,2038,2040,1
245,2020,2038,2040,1
245,2014,2035,2037,1
245,2012,2026,2032,1
245,2010,2029,2030,1
245,2010,2027,2033,1
245,2013,2029,2033,1
245,2013,2029,2033,1
245,2013,2031,2034,1
245,2014,2030,2034,1
245,2017,2036,2035,1
245,2012,2033,2032,1
245,2014,2033,2032,1
245,2014,2033,2034,1
245,2016,2036,2034,1
245,2018,2036,2038,1
245,2015,2037,2041,1
245,2019,2034,2040,1
245,2022,2040,2040,1
245,2015,2034,2032,1
245,2007,2031,2032,1
245,2008,2031,2029,1
245,2008,2032,2032,1
245,2011,2030,2032,1
245,2015,2035,2033,1
245,2011,2032,2035,1
245,2014,2032,2035,1
245,2014,2032,2033,1
245,2012,2032,2033,1
245,2013,2032,2032,1
245,2013,2033,2034,1
245,2017,2033,2034,1
245,2022,2039,2038,1
245,2019,2038,2040,1
245,2022,2037,2040,1
245,2017,2037,2036,1
245,2017,2030,2032,1
245,2009,2026,2032,1
245,2013,2030,2032,1
245,2010,2030,2034,1
245,2012,2031,2033,1
245,2012,2031,2033,1
245,2012,2033,2033,1
245,2013,2033,2034,1
245,2013,2033,2034,1
245,2012,2029,2032,1
245,2016,2034,2032,1
245,2013,2034,2035,1
245,2017,2037,2035,1
245,2018,2037,2038,1
245,2018,2039,2039,1
245,2019,2036,2039,1
245,2017,2039,2036,1
245,2010,2031,2033,1
245,2009,2029,2029,1
245,2009,2029,2031,1
245,2011,2032,2031,1
245,2012,2032,2032,1
245,2012,2031,2033,1
245,2014,2030,2033,1
245,2017,2036,2034,1
245,2013,2034,2032,1
245,2014,2032,2032,1
245,2015,2032,2033,1
245,2015,2035,2036,1
245,2018,2035,2036,1
245,2021,2041,2038,1
245,2018,2039,2040,1
245,2018,2035,2039,1
245,2010,2035,2036,1
245,2010,2028,2036,1
245,2009,2028,2030,1
245,2009,2030,2032,1
245,2012,2029,2033,1
245,2015,2034,2034,1
245,2011,2031,2036,1
245,2014,2033,2035,1
245,2013,2033,2034,1
245,2013,2032,2033,1
245,2011,2031,2033,1
245,2015,2036,2034,1
245,2013,2035,2038,1
245,2019,2032,2038,1
245,2021,2039,2040,1
245,2021,2040,2040,1
245,2017,2040,2038,1
245,2017,2033,2034,1
245,2012,2027,2029,1
245,2014,2030,2028,1
245,2010,2029,2031,1
245,2013,2031,2032,1
245,2012,2031,2032,1
245,2012,2033,2033,1
245,2014,2032,2033,1
245,2015,2037,2033,1
245,2011,2034,2032,1
245,2015,2028,2030,1
245,2017,2034,2033,1
245,2017,2039,2033,1
245,2018,2039,2037,1
245,2018,2040,2039,1
245,2019,2037,2039,1
245,2019,2041,2038,1
245,2012,2034,2034,1
245,2010,2029,2029,1
245,2011,2029,2029,1
245,2011,2033,2030,1
245,2012,2032,2030,1
245,2014,2032,2032,1
245,2011,2032,2034,1
245,2014,2027,2033,1
245,2012,2033,2033,1
245,2012,2031,2033,1
245,2012,2031,2032,1
245,2012,2034,2034,1
245,2016,2034,2034,1
245,2020,2040,2037,1
245,2017,2039,2040,1
245,2018,2033,2040,1
245,2012,2037,2037,1
245,2012,2030,2032,1
245,2007,2028,2032,1
245,2010,2028,2031,1
245,2008,2030,2033,1
245,2012,2027,2032,1
245,2017,2033,2033,1
245,2014,2031,2035,1
245,2013,2031,2035,1
245,2013,2031,2033,1
245,2010,2030,2033,1
245,2014,2030,2033,1
245,2011,2033,2036,1
245,2017,2030,2036,1
245,2020,2037,2038,1
245,2020,2041,2038,1
245,2018,2038,2038,1
245,2014,2038,2033,1
245,2007,2032,2030,1
245,2007,2027,2027,1
245,2014,2032,2030,1
245,2011,2031,2032,1
245,2011,2031,2032,1
245,2011,2032,2033,1
245,2013,2032,2033,1
245,2015,2032,2034,1
245,2011,2029,2033,1
245,2010,2024,2030,1
245,2014,2031,2032,1
245,2014,2030,2037,1
245,2017,2033,2037,1
245,2019,2033,2040,1
245,2019,2035,2040,1
245,2018,2029,2038,1
245,2017,2032,2035,1
245,2009,2026,2030,1
245,2007,2026,2030,1
245,2007,2030,2032,1
245,2010,2030,2032,1
245,2012,2030,2033,1
245,2009,2030,2035,1
245,2013,2026,2034,1
245,2013,2032,2034,1
245,2013,2032,2032,1
245,2012,2033,2032,1
245,2015,2033,2035,1
245,2015,2036,2037,1
245,2020,2034,2037,1
245,2024,2040,2039,1
245,2020,2037,2036,1
245,2013,2037,2036,1
245,2013,2031,2032,1
245,2007,2027,2032,1
245,2010,2027,2031,1
245,2008,2028,2033,1
245,2013,2025,2032,1
245,2013,2031,2033,1
245,2013,2029,2035,1
245,2014,2031,2035,1
245,2013,2031,2033,1
245,2013,2029,2032,1
245,2014,2027,2031,1
245,2020,2034,2034,1
245,2017,2034,2038,1
245,2021,2037,2038,1
245,2021,2037,2039,1
245,2019,2036,2039,1
245,2015,2036,2035,1
245,2008,2031,2032,1
245,2007,2025,2028,1
245,2013,2030,2030,1
245,2011,2029,2033,1
245,2011,2031,2033,1
245,2012,2031,2033,1
245,2012,2033,2034,1
245,2012,2030,2033,1
245,2014,2035,2033,1
245,2009,2030,2034,1
245,2012,2034,2033,1
245,2012,2034,2036,1
245,2016,2037,2036,1
245,2018,2037,2039,1
245,2018,2039,2039,1
245,2018,2034,2038,1
245,2018,2037,2036,1
245,2010,2030,2029,1
245,2006,2031,2029,1
245,2009,2031,2031,1
245,2009,2033,2032,1
245,2010,2031,2031,1
245,2014,2036,2032,1
245,2011,2033,2034,1
245,2013,2032,2033,1
245,2013,2032,2031,1
245,2010,2032,2031,1
245,2013,2032,2033,1
245,2013,2035,2036,1
245,2016,2034,2036,1
245,2022,2040,2038,1
245,2019,2038,2039,1
245,2014,2035,2039,1
245,2010,2035,2031,1
245,2010,2028,2029,1
245,2010,2027,2027,1
245,2014,2033,2030,1
245,2011,2030,2032,1
245,2013,2032,2031,1
245,2013,2032,2033,1
245,2014,2033,2033,1
245,2014,2033,2033,1
245,2014,2031,2032,1
245,2015,2029,2030,1
245,2019,2035,2033,1
245,2016,2035,2038,1
245,2020,2037,2038,1
245,2020,2037,2040,1
245,2020,2038,2039,1
245,2014,2033,2039,1
245,2012,2034,2034,1
245,2005,2027,2033,1
245,2009,2024,2030,1
245,2012,2031,2032,1
245,2012,2034,2032,1
245,2012,2034,2033,1
245,2012,2034,2034,1
245,2014,2031,2034,1
245,2016,2036,2034,1
245,2011,2031,2034,1
245,2013,2033,2032,1
245,2014,2033,2035,1
245,2014,2037,2037,1
245,2018,2038,2037,1
245,2020,2043,2038,1
245,2017,2038,2037,1
245,2018,2028,2034,1
245,2010,2030,2030,1
245,2010,2028,2030,1
245,2011,2028,2030,1
245,2011,2032,2031,1
245,2012,2030,2031,1
245,2015,2035,2032,1
245,2012,2031,2034,1
245,2014,2031,2033,1
245,2012,2031,2033,1
245,2012,2030,2033,1
245,2014,2032,2033,1
245,2018,2032,2036,1
245,2016,2032,2038,1
245,2019,2029,2038,1
245,2018,2037,2039,1
245,2018,2036,2039,1
245,2013,2036,2032,1
245,2013,2028,2029,1
245,2008,2026,2029,1
245,2012,2031,2030,1
245,2010,2030,2032,1
245,2012,2031,2031,1
245,2015,2031,2033,1
245,2015,2034,2033,1
245,2013,2033,2033,1
245,2013,2033,2031,1
245,2008,2032,2033,1
245,2012,2029,2033,1
245,2016,2035,2035,1
245,2016,2034,2038,1
245,2017,2034,2038,1
245,2017,2037,2038,1
245,2016,2033,2038,1
245,2013,2036,2034,1
245,2006,2030,2031,1
245,2008,2025,2028,1
245,2011,2031,2031,1
245,2011,2033,2031,1
245,2012,2033,2031,1
245,2014,2033,2033,1
245,2011,2033,2034,1
245,2013,2028,2033,1
245,2016,2032,2032,1
245,2011,2029,2035,1
245,2014,2029,2035,1
245,2014,2035,2037,1
245,2017,2036,2037,1
245,2020,2036,2040,1
245,2017,2035,2039,1
245,2019,2027,2037,1
245,2010,2030,2034,1
245,2010,2027,2032,1
245,2010,2029,2032,1
245,2012,2029,2034,1
245,2009,2030,2034,1
245,2012,2027,2033,1
245,2017,2033,2035,1
245,2013,2031,2034,1
245,2011,2031,2034,1
245,2011,2030,2033,1
245,2011,2031,2033,1
245,2014,2031,2036,1
245,2012,2031,2039,1
245,2016,2029,2039,1
245,2017,2036,2040,1
245,2017,2034,2037,1
245,2012,2031,2037,1
245,2009,2031,2029,1
245,2009,2027,2029,1
245,2012,2026,2028,1
245,2016,2033,2031,1
245,2012,2031,2032,1
245,2011,2031,2032,1
245,2011,2034,2033,1
245,2012,2034,2033,1
245,2012,2034,2032,1
245,2008,2031,2032,1
245,2013,2029,2032,1
245,2019,2035,2035,1
245,2017,2035,2038,1
245,2019,2038,2038,1
245,2019,2038,2039,1
245,2019,2035,2036,1
245,2016,2028,2033,1
245,2015,2030,2030,1
245,2008,2026,2031,1
245,2012,2030,2030,1
245,2012,2030,2032,1
245,2012,2031,2032,1
245,2014,2031,2033,1
245,2014,2033,2034,1
245,2014,2029,2033,1
245,2016,2034,2033,1
245,2010,2031,2033,1
245,2014,2034,2033,1
245,2016,2034,2036,1
245,2016,2038,2038,1
245,2019,2037,2038,1
245,2021,2042,2039,1
245,2016,2036,2036,1
245,2013,2028,2032,1
245,2013,2028,2027,1
245,2009,2030,2027,1
245,2011,2030,2031,1
245,2011,2031,2032,1
245,2012,2029,2031,1
245,2016,2035,2033,1
245,2012,2033,2034,1
245,2014,2032,2033,1
245,2012,2032,2030,1
245,2012,2032,2031,1
245,2015,2032,2031,1
245,2019,2039,2034,1
245,2016,2037,2037,1
245,2018,2038,2037,1
245,2015,2038,2038,1
245,2015,2033,2038,1
245,2011,2033,2030,1
245,2011,2027,2029,1
245,2011,2026,2027,1
245,2015,2033,2030,1
245,2011,2030,2032,1
245,2013,2032,2031,1
245,2013,2032,2033,1
245,2013,2033,2033,1
245,2012,2031,2033,1
245,2013,2034,2032,1
245,2010,2032,2034,1
245,2015,2029,2034,1
245,2018,2036,2037,1
245,2018,2039,2037,1
245,2018,2039,2040,1
245,2018,2038,2039,1
245,2013,2032,2039,1
245,2012,2033,2033,1
245,2006,2028,2032,1
245,2009,2031,2030,1
245,2009,2031,2032,1
245,2009,2031,2032,1
245,2011,2031,2032,1
245,2014,2031,2035,1
245,2011,2029,2035,1
245,2013,2024,2033,1
245,2013,2029,2032,1
245,2013,2028,2035,1
245,2016,2028,2035,1
245,2016,2034,2037,1
245,2018,2035,2037,1
245,2020,2041,2039,1
245,2016,2037,2038,1
245,2015,2027,2034,1
245,2008,2028,2031,1
245,2008,2029,2030,1
245,2010,2031,2030,1
245,2012,2031,2033,1
245,2009,2031,2034,1
245,2012,2028,2033,1
245,2017,2034,2035,1
245,2013,2031,2033,1
245,2009,2031,2033,1
245,2009,2031,2033,1
245,2012,2033,2033,1
245,2016,2033,2037,1
245,2014,2035,2040,1
245,2018,2032,2039,1
245,2017,2038,2039,1
245,2017,2033,2034,1
245,2009,2029,2034,1
245,2008,2029,2027,1
245,2008,2029,2030,1
245,2011,2028,2030,1
245,2015,2034,2032,1
245,2010,2032,2034,1
245,2011,2032,2034,1
245,2011,2035,2034,1
245,2011,2034,2034,1
245,2010,2034,2032,1
245,2006,2033,2033,1
245,2012,2031,2033,1
245,2019,2037,2036,1
245,2016,2036,2039,1
245,2017,2038,2039,1
245,2016,2038,2038,1
245,2016,2032,2034,1
245,2012,2026,2030,1
245,2014,2029,2029,1
245,2009,2029,2032,1
245,2013,2031,2032,1
245,2013,2031,2032,1
245,2013,2031,2032,1
245,2015,2031,2035,1
245,2012,2032,2034,1
245,2013,2027,2033,1
245,2016,2032,2032,1
245,2012,2030,2034,1
245,2014,2033,2034,1
245,2017,2033,2037,1
245,2017,2037,2039,1
245,2018,2035,2039,1
245,2019,2040,2039,1
245,2013,2033,2035,1
245,2011,2027,2030,1
245,2011,2027,2028,1
245,2010,2030,2028,1
245,2012,2030,2032,1
245,2012,2031,2033,1
245,2013,2028,2032,1
245,2018,2034,2034,1
245,2014,2033,2033,1
245,2010,2033,2033,1
245,2010,2033,2031,1
245,2010,2034,2033,1
245,2015,2034,2033,1
245,2019,2040,2036,1
245,2017,2038,2039,1
245,2019,2037,2039,1
245,2019,2037,2035,1
245,2012,2033,2035,1
245,2009,2033,2028,1
245,2009,2028,2029,1
245,2012,2028,2029,1
245,2016,2034,2032,1
245,2012,2030,2033,1
245,2014,2032,2032,1
245,2014,2032,2034,1
245,2014,2032,2033,1
245,2011,2029,2033,1
245,2013,2033,2033,1
245,2010,2032,2036,1
245,2017,2029,2036,1
245,2020,2036,2038,1
245,2020,2040,2038,1
245,2019,2040,2039,1
245,2019,2036,2036,1
245,2011,2029,2036,1
245,2012,2030,2032,1
245,2006,2027,2033,1
245,2010,2031,2032,1
245,2010,2031,2033,1
245,2010,2031,2033,1
245,2013,2031,2033,1
245,2015,2036,2034,1
245,2011,2031,2034,1
245,2014,2025,2031,1
245,2016,2030,2032,1
245,2016,2035,2032,1
245,2017,2035,2036,1
245,2017,2038,2038,1
245,2018,2036,2038,1
245,2020,2041,2039,1
245,2014,2032,2037,1
245,2012,2026,2032,1
245,2010,2026,2027,1
245,2010,2029,2030,1
245,2013,2029,2030,1
245,2015,2034,2031,1
245,2011,2033,2033,1
245,2016,2028,2033,1
245,2014,2034,2034,1
245,2014,2033,2034,1
245,2013,2033,2031,1
245,2013,2033,2033,1
245,2017,2033,2033,1
245,2021,2039,2036,1
245,2018,2035,2039,1
245,2021,2037,2039,1
245,2017,2037,2036,1
245,2017,2032,2032,1
245,2009,2028,2032,1
245,2011,2031,2030,1
245,2008,2030,2032,1
245,2012,2026,2032,1
245,2012,2032,2033,1
245,2012,2035,2033,1
245,2013,2035,2035,1
245,2013,2034,2034,1
245,2012,2031,2034,1
245,2015,2034,2032,1
245,2011,2032,2035,1
245,2014,2036,2035,1
245,2018,2036,2038,1
245,2018,2039,2039,1
245,2019,2038,2039,1
245,2017,2038,2036,1
245,2011,2032,2032,1
245,2010,2024,2028,1
245,2012,2028,2029,1
245,2012,2027,2032,1
245,2012,2027,2032,1
245,2012,2030,2032,1
245,2013,2030,2032,1
245,2016,2036,2034,1
245,2012,2032,2034,1
245,2014,2025,2032,1
245,2015,2030,2032,1
245,2015,2035,2034,1
245,2017,2037,2034,1
245,2019,2037,2038,1
245,2016,2037,2039,1
245,2018,2032,2038,1
245,2011,2036,2036,1
245,2011,2029,2029,1
245,2006,2029,2029,1
245,2006,2029,2031,1
245,2011,2029,2031,1
245,2014,2035,2032,1
245,2010,2032,2034,1
245,2014,2028,2033,1
245,2014,2034,2034,1
245,2014,2034,2033,1
245,2011,2032,2033,1
245,2013,2032,2034,1
245,2011,2033,2036,1
245,2015,2031,2036,1
245,2021,2038,2039,1
245,2018,2036,2040,1
245,2016,2036,2040,1
245,2016,2033,2035,1
245,2009,2029,2035,1
245,2010,2031,2032,1
245,2006,2028,2033,1
245,2011,2025,2033,1
245,2012,2031,2033,1
245,2012,2034,2033,1
245,2014,2035,2033,1
245,2014,2035,2034,1
245,2014,2033,2033,1
245,2015,2029,2031,1
245,2020,2035,2033,1
245,2016,2035,2037,1
245,2017,2035,2037,1
245,2017,2040,2038,1
245,2019,2040,2038,1
245,2018,2040,2037,1
245,2012,2036,2034,1
245,2011,2028,2030,1
245,2014,2031,2029,1
245,2010,2029,2032,1
245,2011,2031,2032,1
245,2012,2031,2033,1
245,2012,2032,2034,1
245,2013,2031,2034,1
245,2016,2036,2034,1
245,2011,2029,2033,1
245,2013,2032,2031,1
245,2013,2032,2034,1
245,2016,2035,2034,1
245,2018,2035,2038,1
245,2018,2037,2040,1
245,2020,2034,2040,1
245,2021,2040,2038,1
245,2014,2034,2030,1
245,2007,2032,2030,1
245,2008,2032,2029,1
245,2008,2033,2032,1
245,2011,2032,2032,1
245,2014,2037,2033,1
245,2011,2034,2035,1
245,2013,2034,2034,1
245,2013,2034,2033,1
245,2011,2032,2033,1
245,2012,2032,2032,1
245,2012,2034,2034,1
245,2016,2034,2034,1
245,2021,2040,2037,1
245,2018,2038,2040,1
245,2020,2036,2039,1
245,2015,2036,2034,1
245,2015,2029,2030,1
245,2009,2027,2030,1
245,2013,2032,2031,1
245,2010,2029,2033,1
245,2013,2025,2032,1
245,2014,2031,2033,1
245,2014,2034,2033,1
245,2014,2034,2035,1
245,2014,2033,2034,1
245,2011,2030,2034,1
245,2015,2035,2035,1
245,2012,2032,2038,1
245,2016,2037,2038,1
245,2017,2037,2040,1
245,2017,2040,2040,1
245,2018,2037,2040,1
245,2015,2040,2037,1
245,2008,2031,2033,1
245,2009,2025,2029,1
245,2013,2031,2031,1
245,2013,2035,2031,1
245,2013,2035,2032,1
245,2013,2034,2033,1
245,2016,2033,2033,1
245,2018,2038,2033,1
245,2013,2034,2033,1
245,2013,2034,2031,1
245,2016,2034,2033,1
245,2016,2037,2036,1
245,2019,2038,2036,1
245,2021,2038,2039,1
245,2018,2038,2040,1
245,2018,2031,2038,1
245,2009,2034,2035,1
245,2009,2028,2030,1
245,2008,2028,2030,1
245,2008,2032,2032,1
245,2012,2032,2032,1
245,2014,2032,2033,1
245,2011,2032,2035,1
245,2016,2028,2035,1
245,2014,2034,2036,1
245,2014,2033,2034,1
245,2012,2034,2034,1
245,2015,2034,2036,1
245,2013,2036,2038,1
245,2017,2034,2038,1
245,2023,2040,2041,1
245,2020,2038,2038,1
245,2014,2038,2038,1
245,2014,2032,2033,1
245,2008,2029,2033,1
245,2011,2029,2030,1
245,2009,2030,2033,1
245,2012,2026,2033,1
245,2013,2032,2033,1
245,2013,2030,2036,1
245,2014,2032,2036,1
245,2014,2032,2034,1
245,2014,2030,2034,1
245,2015,2029,2032,1
245,2021,2035,2036,1
245,2018,2035,2039,1
245,2022,2038,2039,1
245,2022,2038,2041,1
245,2022,2038,2041,1
245,2019,2038,2037,1
245,2012,2033,2033,1
245,2012,2027,2029,1
245,2017,2031,2031,1
245,2014,2031,2033,1
245,2013,2033,2033,1
245,2014,2033,2033,1
245,2014,2035,2034,1
245,2015,2032,2034,1
245,2017,2037,2034,1
245,2012,2032,2034,1
245,2015,2035,2033,1
245,2015,2035,2036,1
245,2018,2038,2036,1
245,2020,2038,2039,1
245,2020,2040,2041,1
245,2022,2035,2040,1
245,2022,2038,2038,1
245,2014,2032,2031,1
245,2008,2033,2031,1
245,2011,2033,2033,1
245,2011,2035,2034,1
245,2012,2033,2034,1
245,2016,2038,2035,1
245,2013,2034,2037,1
245,2015,2034,2036,1
245,2012,2034,2036,1
245,2012,2034,2036,1
245,2014,2034,2037,1
245,2014,2037,2039,1
245,2017,2037,2039,1
245,2022,2043,2041,1
245,2019,2040,2043,1
245,2020,2036,2041,1
245,2014,2036,2034,1
245,2014,2030,2031,1
245,2012,2030,2031,1
245,2016,2036,2033,1
245,2013,2034,2035,1
245,2016,2029,2034,1
245,2017,2035,2036,1
245,2017,2038,2036,1
245,2016,2038,2036,1
245,2016,2035,2034,1
245,2014,2033,2034,1
245,2019,2038,2036,1
245,2016,2037,2039,1
245,2020,2040,2039,1
245,2020,2040,2041,1
245,2020,2041,2040,1
245,2017,2037,2040,1
245,2015,2037,2033,1
245,2008,2032,2033,1
245,2013,2028,2031,1
245,2015,2035,2034,1
245,2015,2037,2034,1
245,2015,2037,2034,1
245,2015,2036,2036,1
245,2017,2035,2036,1
245,2018,2039,2036,1
245,2013,2035,2035,1
245,2015,2036,2033,1
245,2019,2036,2036,1
245,2019,2040,2039,1
245,2022,2040,2039,1
245,2024,2040,2042,1
245,2020,2037,2041,1
245,2019,2030,2038,1
245,2012,2033,2034,1
245,2012,2029,2033,1
245,2014,2029,2033,1
245,2014,2033,2034,1
245,2015,2033,2034,1
245,2018,2038,2035,1
245,2015,2035,2037,1
245,2018,2030,2037,1
245,2016,2035,2037,1
245,2016,2035,2036,1
245,2017,2037,2036,1
245,2020,2037,2039,1
245,2018,2038,2041,1
245,2021,2036,2041,1
245,2025,2042,2043,1
245,2021,2039,2039,1
245,2014,2039,2039,1
245,2014,2033,2036,1
245,2011,2032,2036,1
245,2015,2032,2036,1
245,2013,2033,2037,1
245,2018,2029,2037,1
245,2018,2035,2037,1
245,2018,2034,2038,1
245,2016,2035,2038,1
245,2015,2035,2036,1
245,2015,2033,2036,1
245,2017,2033,2036,1
245,2022,2040,2039,1
245,2019,2040,2042,1
245,2023,2042,2042,1
245,2023,2042,2043,1
245,2021,2040,2043,1
245,2017,2040,2037,1
245,2010,2035,2035,1
245,2013,2031,2033,1
245,2019,2037,2036,1
245,2016,2035,2037,1
245,2015,2037,2037,1
245,2017,2037,2038,1
245,2017,2038,2038,1
245,2018,2035,2037,1
245,2019,2039,2036,1
245,2015,2033,2038,1
245,2018,2038,2038,1
245,2018,2038,2041,1
245,2021,2041,2041,1
245,2023,2041,2045,1
245,2023,2041,2045,1
245,2023,2035,2043,1
245,2022,2038,2039,1
245,2014,2033,2034,1
245,2013,2036,2034,1
245,2015,2036,2037,1
245,2015,2036,2038,1
245,2016,2035,2038,1
245,2016,2051,2038,2
245,2016,2055,2038,2
245,2016,2054,2038,2
245,2016,2052,2038,2
245,2016,2055,2038,2
245,2016,2058,2038,2
245,2016,2060,2038,2
245,2016,2061,2038,2
245,2016,2061,2038,2
245,2016,2060,2039,2
245,2015,2049,2037,2
245,2016,2047,2035,2
245,2011,2039,2036,2
245,2015,2039,2035,2
245,2015,2039,2038,2
245,2016,2039,2038,2
245,2014,2039,2036,2
245,2014,2032,2034,2
245,2013,2026,2031,2
245,2013,2029,2030,2
245,2006,2024,2026,2
245,2008,2026,2026,2
245,2009,2026,2028,2
245,2009,2030,2030,2
245,2012,2029,2030,2
245,2014,2034,2031,2
245,2010,2030,2030,2
245,2007,2022,2027,2
245,2002,2022,2024,2
245,2002,2022,2024,2
245,2004,2022,2025,2
245,2004,2025,2025,2
245,2005,2023,2025,2
245,2008,2028,2026,2
245,2004,2025,2028,2
245,2007,2024,2027,2
245,2004,2024,2025,2
245,2004,2023,2025,2
245,2006,2025,2025,2
245,2010,2025,2029,2
245,2008,2026,2031,2
245,2014,2023,2031,2
245,2012,2030,2032,2
245,2012,2028,2032,2
245,2007,2028,2025,2
245,2007,2022,2023,2
245,2004,2021,2023,2
245,2007,2027,2025,2
245,2004,2025,2026,2
245,2006,2026,2025,2
245,2008,2026,2027,2
245,2008,2028,2027,2
245,2006,2026,2027,2
245,2005,2026,2024,2
245,2001,2025,2026,2
245,2012,2029,2029,2
245,2022,2039,2037,2
245,2022,2040,2045,2
245,2026,2040,2045,2
245,2026,2046,2046,2
245,2025,2043,2046,2
245,2023,2046,2042,2
245,2017,2039,2042,2
245,2020,2036,2040,2
245,2024,2042,2043,2
245,2024,2045,2043,2
245,2025,2045,2043,2
245,2027,2045,2046,2
245,2024,2043,2047,2
245,2025,2038,2045,2
245,2024,2042,2044,2
245,2024,2047,2044,2
245,2026,2047,2047,2
245,2026,2050,2049,2
245,2030,2050,2049,2
245,2033,2056,2051,2
245,2030,2050,2051,2
245,2029,2043,2048,2
245,2024,2043,2041,2
245,2024,2040,2041,2
245,2025,2042,2041,2
245,2027,2042,2045,2
245,2023,2042,2046,2
245,2026,2039,2045,2
245,2027,2046,2046,2
245,2027,2047,2046,2
245,2026,2047,2045,2
245,2026,2043,2045,2
245,2027,2043,2044,2
245,2033,2049,2048,2
245,2030,2048,2052,2
245,2034,2051,2052,2
245,2033,2051,2052,2
245,2033,2049,2050,2
245,2027,2043,2050,2
245,2027,2045,2046,2
245,2021,2041,2047,2
245,2024,2045,2046,2
245,2024,2045,2046,2
245,2024,2046,2046,2
245,2026,2046,2047,2
245,2026,2048,2048,2
245,2026,2045,2048,2
245,2028,2049,2048,2
245,2023,2046,2048,2
245,2027,2049,2048,2
245,2029,2049,2051,2
245,2029,2052,2052,2
245,2033,2051,2052,2
245,2035,2056,2052,2
245,2031,2050,2051,2
245,2028,2042,2047,2
245,2028,2042,2042,2
245,2024,2043,2042,2
245,2027,2043,2046,2
245,2027,2046,2047,2
245,2028,2043,2046,2
245,2033,2049,2048,2
245,2029,2048,2049,2
245,2026,2048,2049,2
245,2025,2048,2046,2
245,2025,2046,2048,2
245,2028,2046,2048,2
245,2034,2053,2051,2
245,2032,2053,2054,2
245,2035,2053,2054,2
245,2035,2053,2053,2
245,2030,2049,2053,2
245,2027,2049,2046,2
245,2021,2045,2045,2
245,2024,2041,2043,2
245,2027,2047,2046,2
245,2027,2050,2046,2
245,2027,2050,2046,2
245,2029,2050,2049,2
245,2026,2050,2049,2
245,2027,2044,2048,2
245,2031,2048,2048,2
245,2027,2046,2051,2
245,2030,2046,2051,2
245,2030,2052,2053,2
245,2033,2052,2053,2
245,2036,2058,2054,2
245,2032,2055,2054,2
245,2031,2048,2052,2
245,2025,2048,2049,2
245,2025,2045,2048,2
245,2027,2046,2048,2
245,2030,2046,2050,2
245,2026,2043,2050,2
245,2031,2040,2049,2
245,2031,2047,2050,2
245,2031,2048,2050,2
245,2029,2048,2048,2
245,2029,2046,2048,2
245,2029,2046,2048,2
245,2035,2053,2051,2
245,2033,2049,2054,2
245,2037,2053,2055,2
245,2036,2053,2056,2
245,2036,2051,2053,2
245,2029,2045,2053,2
245,2029,2047,2050,2
245,2024,2046,2050,2
245,2028,2049,2049,2
245,2028,2049,2049,2
245,2028,2050,2049,2
245,2030,2050,2050,2
245,2030,2050,2051,2
245,2031,2046,2050,2
245,2033,2050,2049,2
245,2027,2047,2050,2
245,2031,2051,2050,2
245,2033,2051,2054,2
245,2033,2055,2056,2
245,2036,2054,2056,2
245,2038,2059,2057,2
245,2033,2053,2055,2
245,2031,2046,2051,2
245,2031,2046,2046,2
245,2028,2047,2046,2
245,2031,2047,2049,2
245,2028,2047,2050,2
245,2030,2044,2050,2
245,2035,2050,2051,2
245,2032,2048,2051,2
245,2030,2048,2051,2
245,2029,2048,2048,2
245,2029,2049,2051,2
245,2032,2049,2051,2
245,2038,2056,2054,2
245,2036,2056,2057,2
245,2039,2056,2057,2
245,2039,2056,2056,2
245,2034,2053,2056,2
245,2031,2053,2048,2
245,2025,2047,2048,2
245,2028,2044,2046,2
245,2031,2050,2049,2
245,2031,2048,2050,2
245,2031,2050,2050,2
245,2032,2050,2053,2
245,2032,2050,2053,2
245,2034,2046,2051,2
245,2037,2050,2051,2
245,2032,2049,2054,2
245,2035,2049,2054,2
245,2035,2055,2056,2
245,2038,2056,2056,2
245,2041,2056,2058,2
245,2037,2053,2058,2
245,2039,2045,2055,2
245,2030,2048,2052,2
245,2030,2047,2051,2
245,2031,2049,2051,2
245,2033,2049,2052,2
245,2029,2049,2053,2
245,2034,2046,2052,2
245,2034,2052,2053,2
245,2034,2054,2053,2
245,2032,2054,2051,2
245,2032,2050,2051,2
245,2033,2050,2051,2
245,2038,2056,2054,2
245,2035,2056,2057,2
245,2038,2059,2058,2
245,2038,2059,2059,2
245,2038,2056,2056,2
245,2031,2051,2056,2
245,2031,2051,2049,2
245,2026,2048,2051,2
245,2031,2045,2051,2
245,2032,2051,2053,2
245,2032,2053,2053,2
245,2032,2053,2053,2
245,2032,2054,2054,2
245,2033,2051,2053,2
245,2035,2055,2052,2
245,2030,2051,2053,2
245,2034,2055,2053,2
245,2036,2055,2056,2
245,2036,2059,2058,2
245,2039,2058,2058,2
245,2041,2063,2058,2
245,2036,2055,2056,2
245,2033,2049,2052,2
245,2033,2049,2048,2
245,2029,2051,2048,2
245,2031,2051,2051,2
245,2031,2052,2051,2
245,2033,2050,2051,2
245,2037,2056,2053,2
245,2034,2054,2054,2
245,2036,2052,2054,2
245,2034,2052,2051,2
245,2034,2053,2053,2
245,2037,2053,2053,2
245,2042,2060,2056,2
245,2039,2056,2059,2
245,2042,2058,2059,2
245,2042,2058,2058,2
245,2036,2055,2058,2
245,2033,2055,2051,2
245,2027,2052,2050,2
245,2030,2049,2049,2
245,2036,2055,2052,2
245,2033,2052,2053,2
245,2034,2053,2053,2
245,2035,2053,2055,2
245,2035,2053,2055,2
245,2035,2049,2053,2
245,2038,2053,2053,2
245,2034,2053,2056,2
245,2038,2057,2056,2
245,2038,2057,2059,2
245,2041,2059,2059,2
245,2043,2059,2060,2
245,2039,2058,2059,2
245,2038,2049,2056,2
245,2032,2051,2053,2
245,2032,2047,2053,2
245,2034,2050,2053,2
245,2035,2050,2055,2
245,2035,2051,2055,2
245,2038,2050,2054,2
245,2042,2056,2056,2
245,2037,2053,2054,2
245,2032,2053,2054,2
245,2032,2052,2054,2
245,2035,2053,2054,2
245,2039,2059,2057,2
245,2037,2059,2060,2
245,2043,2055,2060,2
245,2042,2061,2061,2
245,2042,2059,2058,2
245,2034,2054,2058,2
245,2033,2054,2051,2
245,2028,2053,2053,2
245,2032,2050,2053,2
245,2032,2056,2054,2
245,2032,2053,2055,2
245,2034,2053,2055,2
245,2034,2055,2055,2
245,2035,2053,2055,2
245,2035,2057,2054,2
245,2030,2054,2056,2
245,2034,2058,2056,2
245,2039,2058,2059,2
245,2039,2061,2060,2
245,2042,2061,2060,2
245,2042,2061,2061,2
245,2037,2055,2058,2
245,2035,2047,2054,2
245,2033,2050,2052,2
245,2033,2053,2052,2
245,2034,2053,2055,2
245,2034,2055,2055,2
245,2035,2053,2055,2
245,2039,2058,2057,2
245,2036,2055,2058,2
245,2037,2053,2056,2
245,2035,2053,2053,2
245,2035,2055,2055,2
245,2038,2056,2055,2
245,2042,2062,2058,2
245,2040,2059,2061,2
245,2042,2061,2061,2
245,2042,2061,2059,2
245,2036,2058,2059,2
245,2033,2058,2052,2
245,2033,2052,2051,2
245,2035,2051,2050,2
245,2039,2057,2053,2
245,2036,2055,2055,2
245,2038,2056,2055,2
245,2038,2056,2057,2
245,2038,2057,2057,2
245,2036,2054,2057,2
245,2038,2057,2056,2
245,2035,2055,2059,2
245,2039,2059,2059,2
245,2039,2059,2062,2
245,2042,2062,2062,2
245,2043,2062,2063,2
245,2043,2060,2061,2
245,2040,2053,2058,2
245,2040,2055,2056,2
245,2033,2052,2055,2
245,2033,2055,2055,2
245,2034,2055,2057,2
245,2034,2056,2057,2
245,2037,2054,2057,2
245,2040,2060,2059,2
245,2036,2054,2059,2
245,2036,2053,2057,2
245,2036,2053,2056,2
245,2038,2056,2056,2
245,2041,2056,2060,2
245,2039,2059,2062,2
245,2042,2057,2062,2
245,2046,2064,2064,2
245,2042,2060,2059,2
245,2035,2057,2059,2
245,2034,2057,2054,2
245,2034,2055,2055,2
245,2036,2053,2055,2
245,2040,2059,2056,2
245,2036,2056,2057,2
245,2039,2058,2057,2
245,2039,2058,2058,2
245,2037,2057,2058,2
245,2037,2057,2056,2
245,2033,2057,2058,2
245,2038,2054,2058,2
245,2042,2061,2061,2
245,2042,2066,2063,2
245,2044,2066,2063,2
245,2044,2066,2063,2
245,2044,2059,2060,2
245,2040,2052,2056,2
245,2041,2054,2055,2
245,2036,2052,2058,2
245,2038,2052,2058,2
245,2038,2055,2058,2
245,2038,2055,2058,2
245,2041,2061,2058,2
245,2037,2058,2059,2
245,2037,2052,2057,2
245,2036,2056,2056,2
245,2036,2059,2058,2
245,2040,2061,2058,2
245,2043,2061,2063,2
245,2041,2060,2065,2
245,2044,2057,2064,2
245,2041,2063,2064,2
245,2041,2059,2064,2
245,2037,2059,2055,2
245,2037,2054,2054,2
245,2037,2054,2054,2
245,2040,2060,2057,2
245,2037,2057,2059,2
245,2039,2059,2058,2
245,2039,2059,2059,2
245,2039,2059,2058,2
245,2037,2056,2058,2
245,2039,2060,2057,2
245,2036,2057,2060,2
245,2043,2055,2061,2
245,2046,2063,2064,2
245,2046,2066,2064,2
245,2046,2066,2066,2
245,2046,2064,2064,2
245,2044,2057,2061,2
245,2043,2058,2058,2
245,2036,2053,2058,2
245,2039,2057,2057,2
245,2039,2057,2058,2
245,2039,2058,2058,2
245,2040,2058,2058,2
245,2042,2063,2059,2
245,2038,2059,2059,2
245,2038,2056,2057,2
245,2038,2056,2058,2
245,2039,2059,2058,2
245,2042,2059,2063,2
245,2042,2064,2065,2
245,2044,2062,2065,2
245,2048,2068,2066,2
245,2044,2064,2060,2
245,2036,2060,2060,2
245,2034,2060,2055,2
245,2034,2058,2057,2
245,2038,2057,2057,2
245,2041,2062,2058,2
245,2037,2060,2060,2
245,2040,2061,2059,2
245,2040,2061,2060,2
245,2039,2060,2060,2
245,2038,2060,2058,2
245,2034,2058,2060,2
245,2038,2056,2060,2
245,2045,2063,2063,2
245,2043,2062,2066,2
245,2045,2064,2066,2
245,2044,2064,2066,2
245,2044,2059,2063,2
245,2040,2053,2058,2
245,2042,2056,2056,2
245,2037,2055,2059,2
245,2038,2055,2059,2
245,2038,2058,2059,2
245,2038,2058,2059,2
245,2041,2058,2061,2
245,2038,2056,2061,2
245,2041,2051,2059,2
245,2039,2056,2058,2
245,2039,2060,2060,2
245,2043,2062,2060,2
245,2046,2062,2065,2
245,2044,2064,2067,2
245,2048,2061,2067,2
245,2043,2066,2066,2
245,2043,2059,2058,2
245,2036,2059,2058,2
245,2036,2055,2057,2
245,2038,2056,2057,2
245,2041,2062,2059,2
245,2038,2059,2060,2
245,2040,2061,2059,2
245,2040,2061,2061,2
245,2040,2061,2060,2
245,2038,2058,2060,2
245,2041,2061,2060,2
245,2038,2061,2063,2
245,2045,2058,2063,2
245,2047,2065,2065,2
245,2047,2068,2065,2
245,2047,2068,2067,2
245,2047,2066,2065,2
245,2043,2059,2062,2
245,2043,2060,2059,2
245,2037,2057,2058,2
245,2040,2059,2058,2
245,2040,2059,2059,2
245,2040,2059,2060,2
245,2042,2058,2060,2
245,2044,2064,2061,2
245,2040,2060,2061,2
245,2040,2057,2059,2
245,2040,2057,2060,2
245,2042,2060,2060,2
245,2045,2060,2065,2
245,2045,2064,2067,2
245,2048,2062,2067,2
245,2052,2068,2069,2
245,2046,2063,2062,2
245,2037,2060,2062,2
245,2036,2060,2057,2
245,2036,2058,2059,2
245,2039,2056,2059,2
245,2043,2062,2059,2
245,2039,2060,2061,2
245,2039,2060,2061,2
245,2039,2063,2061,2
245,2040,2061,2061,2
245,2040,2061,2059,2
245,2036,2058,2061,2
245,2042,2056,2061,2
245,2046,2064,2064,2
245,2046,2069,2066,2
245,2047,2069,2066,2
245,2046,2069,2067,2
245,2040,2065,2063,2
245,2038,2057,2058,2
245,2041,2059,2058,2
245,2037,2057,2061,2
245,2039,2057,2061,2
245,2039,2059,2061,2
245,2040,2059,2061,2
245,2043,2065,2062,2
245,2040,2062,2063,2
245,2043,2056,2061,2
245,2042,2060,2060,2
245,2042,2063,2062,2
245,2045,2065,2062,2
245,2048,2065,2067,2
245,2046,2066,2069,2
245,2049,2061,2069,2
245,2043,2067,2068,2
245,2043,2062,2068,2
245,2039,2062,2059,2
245,2039,2058,2059,2
245,2040,2058,2059,2
245,2043,2064,2060,2
245,2039,2059,2061,2
245,2041,2061,2060,2
245,2040,2061,2062,2
245,2040,2062,2062,2
245,2039,2059,2062,2
245,2042,2062,2061,2
245,2039,2060,2064,2
245,2044,2058,2065,2
245,2047,2066,2067,2
245,2047,2069,2067,2
245,2047,2069,2069,2
245,2047,2067,2066,2
245,2040,2060,2066,2
245,2040,2061,2062,2
245,2034,2057,2062,2
245,2038,2060,2061,2
245,2038,2060,2061,2
245,2038,2060,2061,2
245,2041,2060,2061,2
245,2044,2066,2062,2
245,2040,2063,2062,2
245,2040,2056,2060,2
245,2043,2060,2061,2
245,2043,2065,2061,2
245,2046,2065,2066,2
245,2046,2068,2068,2
245,2049,2066,2068,2
245,2052,2071,2069,2
245,2046,2065,2066,2
245,2043,2058,2062,2
245,2040,2058,2057,2
245,2040,2059,2059,2
245,2042,2058,2059,2
245,2044,2064,2060,2
245,2040,2061,2062,2
245,2042,2063,2062,2
245,2042,2063,2062,2
245,2040,2062,2062,2
245,2040,2062,2060,2
245,2040,2062,2062,2
245,2043,2060,2063,2
245,2049,2067,2066,2
245,2047,2067,2069,2
245,2048,2069,2069,2
245,2046,2069,2068,2
245,2046,2063,2064,2
245,2042,2058,2059,2
245,2044,2061,2058,2
245,2040,2058,2061,2
245,2043,2060,2061,2
245,2043,2060,2062,2
245,2042,2061,2062,2
245,2044,2061,2063,2
245,2041,2061,2063,2
245,2042,2057,2062,2
245,2046,2061,2062,2
245,2042,2059,2065,2
245,2045,2063,2065,2
245,2047,2063,2068,2
245,2047,2067,2069,2
245,2049,2065,2069,2
245,2050,2070,2068,2
245,2043,2064,2060,2
245,2036,2064,2060,2
245,2036,2060,2060,2
245,2039,2061,2060,2
245,2041,2061,2063,2
245,2038,2060,2063,2
245,2043,2057,2062,2
245,2044,2063,2063,2
245,2044,2064,2062,2
245,2041,2062,2062,2
245,2043,2062,2061,2
245,2043,2064,2064,2
245,2046,2063,2065,2
245,2052,2070,2068,2
245,2049,2068,2069,2
245,2048,2068,2069,2
245,2048,2066,2066,2
245,2042,2061,2066,2
245,2042,2062,2063,2
245,2037,2059,2063,2
245,2040,2062,2062,2
245,2042,2062,2063,2
245,2042,2063,2063,2
245,2043,2063,2063,2
245,2044,2063,2064,2
245,2041,2062,2064,2
245,2042,2056,2062,2
245,2044,2061,2063,2
245,2044,2067,2063,2
245,2046,2067,2067,2
245,2046,2070,2069,2
245,2049,2069,2069,2
245,2051,2074,2070,2
245,2046,2068,2068,2
245,2043,2060,2064,2
245,2040,2060,2059,2
245,2040,2061,2061,2
245,2043,2061,2061,2
245,2045,2066,2062,2
245,2041,2064,2064,2
245,2046,2059,2064,2
245,2044,2064,2064,2
245,2044,2063,2064,2
245,2043,2063,2062,2
245,2043,2063,2064,2
245,2045,2063,2064,2
245,2051,2070,2067,2
245,2048,2070,2070,2
245,2051,2070,2070,2
245,2048,2070,2069,2
245,2048,2063,2065,2
245,2041,2059,2065,2
245,2043,2062,2063,2
245,2040,2060,2065,2
245,2043,2062,2065,2
245,2043,2062,2063,2
245,2042,2063,2063,2
245,2043,2063,2064,2
245,2043,2064,2064,2
245,2043,2059,2063,2
245,2046,2063,2063,2
245,2042,2062,2066,2
245,2045,2066,2066,2
245,2048,2066,2069,2
245,2048,2069,2070,2
245,2049,2067,2070,2
245,2050,2071,2068,2
245,2043,2064,2065,2
245,2041,2058,2061,2
245,2041,2058,2060,2
245,2043,2060,2060,2
245,2044,2060,2063,2
245,2041,2061,2064,2
245,2043,2058,2063,2
245,2048,2064,2065,2
245,2044,2061,2063,2
245,2042,2061,2063,2
245,2043,2061,2062,2
245,2043,2064,2065,2
245,2046,2063,2066,2
245,2052,2070,2069,2
245,2049,2069,2071,2
245,2048,2069,2071,2
245,2048,2067,2068,2
245,2042,2062,2068,2
245,2042,2062,2061,2
245,2037,2058,2063,2
245,2042,2055,2062,2
245,2042,2062,2063,2
245,2042,2064,2063,2
245,2044,2064,2063,2
245,2045,2064,2065,2
245,2041,2064,2064,2
245,2043,2058,2062,2
245,2045,2063,2063,2
245,2045,2069,2063,2
245,2047,2069,2067,2
245,2047,2072,2069,2
245,2050,2070,2069,2
245,2051,2074,2070,2
245,2046,2068,2068,2
245,2044,2060,2064,2
245,2042,2060,2059,2
245,2042,2061,2061,2
245,2044,2061,2061,2
245,2046,2066,2062,2
245,2042,2063,2064,2
245,2044,2059,2064,2
245,2044,2065,2064,2
245,2044,2063,2064,2
245,2043,2063,2061,2
245,2043,2063,2063,2
245,2046,2063,2063,2
245,2052,2070,2067,2
245,2049,2069,2070,2
245,2052,2069,2070,2
245,2049,2069,2068,2
245,2049,2063,2064,2
245,2041,2058,2064,2
245,2043,2061,2062,2
245,2040,2060,2064,2
245,2043,2062,2064,2
245,2043,2062,2064,2
245,2043,2063,2064,2
245,2045,2063,2066,2
245,2042,2063,2066,2
245,2043,2058,2064,2
245,2047,2062,2064,2
245,2043,2061,2067,2
245,2047,2065,2067,2
245,2049,2065,2070,2
245,2049,2068,2071,2
245,2050,2065,2071,2
245,2051,2070,2070,2
245,2044,2064,2061,2
245,2037,2064,2061,2
245,2037,2061,2061,2
245,2041,2062,2061,2
245,2043,2062,2063,2
245,2040,2062,2064,2
245,2045,2058,2063,2
245,2045,2064,2064,2
245,2045,2065,2063,2
245,2042,2063,2063,2
245,2044,2063,2063,2
245,2042,2064,2066,2
245,2047,2062,2066,2
245,2053,2069,2069,2
245,2050,2067,2071,2
245,2049,2067,2071,2
245,2049,2065,2068,2
245,2042,2060,2068,2
245,2042,2062,2064,2
245,2037,2059,2064,2
245,2040,2061,2064,2
245,2040,2061,2064,2
245,2040,2063,2064,2
245,2043,2063,2064,2
245,2045,2063,2065,2
245,2041,2059,2064,2
245,2043,2054,2062,2
245,2046,2060,2064,2
245,2046,2066,2064,2
245,2048,2066,2068,2
245,2048,2070,2070,2
245,2050,2068,2070,2
245,2053,2073,2071,2
245,2047,2067,2063,2
245,2045,2059,2063,2
245,2043,2059,2059,2
245,2043,2061,2061,2
245,2044,2059,2061,2
245,2047,2065,2062,2
245,2043,2062,2064,2
245,2046,2064,2064,2
245,2046,2064,2064,2
245,2044,2063,2064,2
245,2044,2063,2062,2
245,2040,2063,2065,2
245,2046,2062,2065,2
245,2052,2069,2069,2
245,2049,2068,2071,2
245,2054,2069,2071,2
245,2051,2069,2068,2
245,2051,2063,2065,2
245,2048,2057,2060,2
245,2050,2060,2060,2
245,2045,2060,2063,2
245,2044,2060,2063,2
245,2044,2063,2063,2
245,2044,2063,2063,2
245,2046,2063,2065,2
245,2043,2060,2065,2
245,2044,2055,2063,2
245,2045,2060,2063,2
245,2045,2065,2065,2
245,2048,2067,2065,2
245,2051,2067,2069,2
245,2049,2069,2071,2
245,2051,2065,2070,2
245,2045,2069,2068,2
245,2045,2062,2060,2
245,2038,2062,2060,2
245,2038,2060,2061,2
245,2042,2060,2061,2
245,2045,2066,2063,2
245,2041,2061,2064,2
245,2043,2064,2064,2
245,2042,2064,2065,2
245,2042,2064,2064,2
245,2040,2062,2064,2
245,2043,2062,2064,2
245,2041,2061,2067,2
245,2047,2059,2067,2
245,2050,2067,2070,2
245,2050,2071,2070,2
245,2050,2071,2071,2
245,2050,2067,2068,2
245,2046,2060,2064,2
245,2046,2062,2062,2
245,2040,2060,2064,2
245,2044,2062,2064,2
245,2044,2062,2064,2
245,2044,2063,2064,2
245,2046,2062,2064,2
245,2048,2068,2064,2
245,2043,2063,2064,2
245,2043,2062,2061,2
245,2043,2062,2064,2
245,2045,2065,2064,2
245,2048,2065,2068,2
245,2046,2067,2070,2
245,2050,2064,2070,2
245,2053,2070,2071,2
245,2047,2064,2063,2
245,2039,2061,2063,2
245,2040,2061,2059,2
245,2040,2062,2061,2
245,2042,2060,2062,2
245,2046,2065,2063,2
245,2042,2063,2065,2
245,2043,2063,2065,2
245,2043,2064,2065,2
245,2043,2062,2065,2
245,2044,2062,2062,2
245,2041,2060,2065,2
245,2047,2058,2066,2
245,2051,2067,2069,2
245,2051,2072,2070,2
245,2051,2072,2070,2
245,2049,2072,2068,2
245,2043,2067,2064,2
245,2043,2059,2059,2
245,2042,2062,2059,2
245,2042,2060,2063,2
245,2042,2060,2063,2
245,2042,2062,2063,2
245,2044,2062,2063,2
245,2047,2067,2065,2
245,2043,2062,2066,2
245,2043,2060,2064,2
245,2043,2060,2062,2
245,2043,2064,2064,2
245,2048,2066,2064,2
245,2051,2072,2067,2
245,2049,2071,2070,2
245,2054,2065,2070,2
245,2046,2069,2068,2
245,2046,2061,2068,2
245,2043,2061,2061,2
245,2043,2059,2061,2
245,2045,2058,2061,2
245,2048,2064,2063,2
245,2043,2062,2064,2
245,2046,2063,2064,2
245,2045,2063,2065,2
245,2045,2063,2064,2
245,2044,2060,2062,2
245,2048,2064,2063,2
245,2045,2063,2067,2
245,2049,2068,2067,2
245,2049,2068,2070,2
245,2051,2069,2070,2
245,2051,2069,2071,2
245,2046,2066,2069,2
245,2045,2058,2064,2
245,2041,2061,2061,2
245,2041,2058,2063,2
245,2043,2060,2063,2
245,2044,2060,2063,2
245,2044,2062,2064,2
245,2047,2059,2064,2
245,2050,2065,2065,2
245,2045,2061,2063,2
245,2041,2061,2063,2
245,2041,2063,2064,2
245,2046,2064,2064,2
245,2050,2070,2067,2
245,2048,2067,2070,2
245,2050,2069,2070,2
245,2047,2069,2071,2
245,2047,2065,2066,2
245,2040,2061,2066,2
245,2041,2061,2061,2
245,2037,2058,2064,2
245,2042,2055,2064,2
245,2043,2061,2064,2
245,2043,2064,2064,2
245,2044,2064,2065,2
245,2044,2064,2065,2
245,2045,2060,2063,2
245,2047,2063,2062,2
245,2042,2063,2065,2
245,2047,2067,2065,2
245,2049,2067,2069,2
245,2049,2070,2069,2
245,2050,2068,2069,2
245,2050,2072,2068,2
245,2043,2064,2065,2
245,2042,2058,2060,2
245,2042,2058,2059,2
245,2042,2060,2059,2
245,2043,2060,2063,2
245,2039,2060,2063,2
245,2042,2057,2062,2
245,2043,2063,2063,2
245,2043,2060,2063,2
245,2041,2060,2063,2
245,2043,2060,2062,2
245,2043,2064,2065,2
245,2047,2063,2066,2
245,2053,2070,2069,2
245,2050,2069,2070,2
245,2049,2069,2070,2
245,2049,2067,2067,2
245,2042,2061,2067,2
245,2042,2062,2063,2
245,2036,2059,2063,2
245,2041,2056,2062,2
245,2042,2062,2063,2
245,2042,2064,2063,2
245,2044,2064,2063,2
245,2045,2064,2064,2
245,2041,2062,2064,2
245,2041,2056,2062,2
245,2045,2061,2063,2
245,2045,2067,2063,2
245,2047,2067,2067,2
245,2047,2070,2069,2
245,2050,2068,2069,2
245,2052,2073,2070,2
245,2047,2067,2067,2
245,2044,2059,2063,2
245,2041,2059,2058,2
245,2041,2060,2060,2
245,2043,2060,2060,2
245,2044,2065,2061,2
245,2039,2061,2059,2
245,2037,2055,2056,2
245,2032,2055,2055,2
245,2032,2051,2055,2
245,2030,2051,2049,2
245,2030,2050,2050,2
245,2032,2050,2050,2
245,2038,2056,2053,2
245,2035,2056,2056,2
245,2038,2057,2056,2
245,2035,2057,2055,2
245,2035,2050,2051,2
245,2028,2045,2051,2
245,2030,2048,2049,2
245,2027,2044,2051,2
245,2029,2047,2051,2
245,2029,2047,2050,2
245,2028,2049,2050,2
245,2030,2049,2052,2
245,2030,2050,2052,2
245,2030,2046,2050,2
245,2033,2050,2050,2
245,2029,2050,2054,2
245,2033,2054,2054,2
245,2035,2054,2057,2
245,2035,2057,2058,2
245,2037,2054,2058,2
245,2037,2058,2056,2
245,2030,2050,2052,2
245,2029,2045,2047,2
245,2029,2045,2047,2
245,2029,2047,2047,2
245,2030,2047,2050,2
245,2027,2047,2050,2
245,2030,2045,2049,2
245,2036,2051,2051,2
245,2032,2048,2050,2
245,2028,2048,2050,2
245,2030,2048,2049,2
245,2030,2051,2052,2
245,2033,2051,2053,2
245,2039,2058,2056,2
245,2036,2057,2058,2
245,2039,2053,2058,2
245,2039,2053,2052,2
245,2030,2048,2052,2
245,2029,2048,2046,2
245,2024,2046,2048,2
245,2028,2043,2048,2
245,2029,2049,2049,2
245,2029,2047,2050,2
245,2031,2049,2050,2
245,2031,2049,2051,2
245,2031,2047,2050,2
245,2030,2043,2048,2
245,2036,2048,2049,2
245,2032,2049,2054,2
245,2034,2049,2054,2
245,2034,2055,2056,2
245,2037,2055,2056,2
245,2037,2055,2057,2
245,2032,2051,2054,2
245,2032,2042,2050,2
245,2028,2045,2048,2
245,2028,2048,2049,2
245,2031,2049,2049,2
245,2031,2049,2050,2
245,2027,2047,2050,2
245,2029,2043,2049,2
245,2027,2049,2049,2
245,2027,2045,2046,2
245,2025,2045,2046,2
245,2025,2046,2047,2
245,2028,2046,2047,2
245,2031,2052,2049,2
245,2028,2050,2051,2
245,2030,2049,2050,2
245,2026,2049,2050,2
245,2026,2045,2046,2
245,2022,2042,2046,2
245,2024,2042,2043,2
245,2021,2042,2045,2
245,2026,2038,2045,2
245,2026,2044,2045,2
245,2026,2046,2045,2
245,2026,2046,2047,2
245,2026,2046,2047,2
245,2025,2043,2047,2
245,2027,2047,2047,2
245,2024,2045,2049,2
245,2027,2048,2049,2
245,2030,2048,2051,2
245,2030,2051,2051,2
245,2030,2050,2051,2
245,2028,2050,2048,2
245,2021,2043,2044,2
245,2021,2036,2040,2
245,2023,2040,2041,2
245,2023,2044,2041,2
245,2023,2044,2043,2
245,2023,2044,2044,2
245,2025,2044,2044,2
245,2028,2049,2046,2
245,2024,2043,2046,2
245,2024,2041,2044,2
245,2024,2041,2044,2
245,2024,2046,2047,2
245,2028,2047,2047,2
245,2031,2047,2050,2
245,2028,2046,2051,2
245,2031,2041,2050,2
245,2024,2045,2048,2
245,2024,2041,2048,2
245,2021,2041,2041,2
245,2021,2040,2042,2
245,2024,2041,2042,2
245,2026,2046,2043,2
245,2022,2043,2044,2
245,2025,2045,2044,2
245,2024,2045,2045,2
245,2024,2044,2044,2
245,2022,2042,2044,2
245,2025,2042,2046,2
245,2023,2044,2048,2
245,2028,2042,2049,2
245,2031,2049,2051,2
245,2031,2052,2051,2
245,2029,2052,2051,2
245,2029,2047,2047,2
245,2022,2041,2047,2
245,2023,2043,2044,2
245,2019,2039,2046,2
245,2022,2042,2045,2
245,2022,2042,2044,2
245,2022,2044,2045,2
245,2025,2045,2045,2
245,2026,2045,2045,2
245,2022,2042,2044,2
245,2025,2037,2041,2
245,2028,2043,2043,2
245,2028,2043,2048,2
245,2031,2043,2048,2
245,2031,2049,2050,2
245,2032,2048,2050,2
245,2032,2053,2050,2
245,2026,2047,2047,2
245,2023,2041,2042,2
245,2023,2041,2042,2
245,2023,2044,2044,2
245,2025,2044,2044,2
245,2026,2044,2045,2
245,2023,2044,2047,2
245,2027,2040,2046,2
245,2025,2045,2045,2
245,2025,2042,2043,2
245,2024,2042,2043,2
245,2024,2045,2045,2
245,2027,2046,2045,2
245,2030,2052,2047,2
245,2027,2050,2049,2
245,2032,2044,2048,2
245,2025,2048,2048,2
245,2025,2043,2045,2
245,2021,2042,2045,2
245,2023,2042,2044,2
245,2021,2043,2046,2
245,2023,2040,2045,2
245,2028,2045,2046,2
245,2025,2043,2048,2
245,2025,2043,2048,2
245,2025,2044,2046,2
245,2023,2042,2046,2
245,2026,2046,2045,2
245,2023,2045,2048,2
245,2027,2041,2048,2
245,2028,2048,2049,2
245,2028,2051,2049,2
245,2028,2048,2049,2
245,2026,2048,2045,2
245,2020,2044,2043,2
245,2021,2039,2040,2
245,2023,2044,2042,2
245,2023,2043,2044,2
245,2023,2043,2044,2
245,2023,2044,2045,2
245,2025,2044,2045,2
245,2027,2049,2045,2
245,2023,2046,2045,2
245,2026,2039,2043,2
245,2027,2043,2044,2
245,2027,2046,2046,2
245,2029,2047,2046,2
245,2030,2047,2049,2
245,2026,2045,2049,2
245,2027,2039,2048,2
245,2022,2043,2045,2
245,2022,2042,2045,2
245,2021,2042,2041,2
245,2021,2043,2043,2
245,2024,2042,2043,2
245,2027,2047,2044,2
245,2023,2043,2046,2
245,2027,2039,2045,2
245,2025,2045,2046,2
245,2025,2044,2045,2
245,2023,2044,2045,2
245,2025,2044,2046,2
245,2023,2045,2048,2
245,2027,2042,2048,2
245,2028,2048,2049,2
245,2028,2046,2047,2
245,2024,2046,2047,2
245,2024,2042,2044,2
245,2020,2039,2044,2
245,2023,2043,2043,2
245,2020,2040,2045,2
245,2024,2036,2045,2
245,2024,2042,2045,2
245,2024,2045,2045,2
245,2025,2045,2045,2
245,2025,2045,2045,2
245,2021,2042,2044,2
245,2024,2039,2042,2
245,2027,2045,2044,2
245,2027,2044,2047,2
245,2027,2044,2047,2
245,2027,2047,2048,2
245,2028,2046,2048,2
245,2027,2050,2046,2
245,2021,2045,2043,2
245,2020,2038,2040,2
245,2022,2042,2040,2
245,2022,2045,2042,2
245,2024,2045,2042,2
245,2025,2045,2044,2
245,2022,2045,2045,2
245,2024,2041,2045,2
245,2022,2046,2045,2
245,2022,2042,2043,2
245,2023,2042,2043,2
245,2023,2046,2046,2
245,2028,2047,2046,2
245,2031,2053,2049,2
245,2028,2052,2051,2
245,2034,2046,2050,2
245,2026,2049,2048,2
245,2026,2043,2044,2
245,2021,2041,2044,2
245,2023,2041,2044,2
245,2021,2042,2045,2
245,2023,2038,2044,2
245,2024,2044,2045,2
245,2024,2042,2047,2
245,2024,2042,2047,2
245,2024,2043,2046,2
245,2021,2041,2046,2
245,2025,2045,2046,2
245,2023,2044,2049,2
245,2029,2042,2049,2
245,2031,2050,2051,2
245,2031,2053,2051,2
245,2029,2050,2051,2
245,2026,2050,2046,2
245,2019,2043,2044,2
245,2020,2038,2040,2
245,2023,2043,2042,2
245,2023,2046,2042,2
245,2023,2046,2043,2
245,2023,2045,2044,2
245,2025,2044,2044,2
245,2027,2049,2045,2
245,2022,2043,2045,2
245,2022,2043,2043,2
245,2026,2043,2045,2
245,2026,2048,2048,2
245,2029,2049,2048,2
245,2032,2049,2051,2
245,2029,2050,2051,2
245,2029,2042,2050,2
245,2021,2045,2046,2
245,2021,2041,2046,2
245,2020,2041,2041,2
245,2020,2044,2043,2
245,2022,2043,2043,2
245,2025,2047,2044,2
245,2022,2045,2046,2
245,2028,2040,2045,2
245,2025,2045,2045,2
245,2025,2043,2043,2
245,2023,2044,2043,2
245,2027,2044,2046,2
245,2025,2046,2049,2
245,2031,2044,2049,2
245,2032,2051,2050,2
245,2032,2048,2048,2
245,2026,2048,2048,2
245,2026,2042,2044,2
245,2021,2039,2044,2
245,2024,2042,2043,2
245,2021,2042,2045,2
245,2024,2037,2044,2
245,2024,2043,2045,2
245,2024,2046,2045,2
245,2024,2045,2045,2
245,2024,2045,2044,2
245,2019,2042,2044,2
245,2022,2039,2043,2
245,2027,2046,2046,2
245,2027,2045,2050,2
245,2030,2045,2050,2
245,2030,2049,2050,2
245,2031,2047,2050,2
245,2029,2050,2047,2
245,2022,2043,2044,2
245,2021,2041,2040,2
245,2023,2041,2042,2
245,2023,2044,2043,2
245,2023,2043,2043,2
245,2025,2043,2044,2
245,2022,2041,2046,2
245,2024,2036,2045,2
245,2022,2042,2045,2
245,2022,2043,2045,2
245,2023,2043,2045,2
245,2023,2047,2047,2
245,2028,2047,2047,2
245,2032,2053,2049,2
245,2029,2049,2051,2
245,2030,2045,2050,2
245,2024,2045,2044,2
245,2024,2039,2041,2
245,2021,2039,2041,2
245,2024,2039,2043,2
245,2021,2038,2044,2
245,2024,2034,2043,2
245,2026,2040,2044,2
245,2026,2044,2044,2
245,2025,2044,2044,2
245,2025,2042,2043,2
245,2022,2040,2043,2
245,2027,2046,2045,2
245,2025,2045,2048,2
245,2029,2049,2049,2
245,2029,2049,2051,2
245,2029,2050,2050,2
245,2026,2045,2050,2
245,2024,2047,2046,2
245,2018,2039,2044,2
245,2023,2035,2041,2
245,2025,2042,2043,2
245,2025,2043,2043,2
245,2025,2043,2044,2
245,2025,2044,2045,2
245,2026,2041,2045,2
245,2028,2046,2045,2
245,2023,2039,2044,2
245,2025,2042,2042,2
245,2026,2042,2046,2
245,2026,2047,2048,2
245,2030,2047,2048,2
245,2033,2053,2049,2
245,2030,2050,2049,2
245,2029,2043,2047,2
245,2022,2043,2043,2
245,2022,2040,2043,2
245,2023,2040,2041,2
245,2023,2042,2043,2
245,2023,2040,2043,2
245,2026,2045,2044,2
245,2022,2044,2045,2
245,2025,2043,2045,2
245,2023,2043,2045,2
245,2023,2041,2044,2
245,2025,2041,2044,2
245,2030,2048,2046,2
245,2027,2048,2049,2
245,2030,2050,2049,2
245,2030,2050,2050,2
245,2029,2049,2050,2
245,2026,2049,2046,2
245,2026,2040,2042,2
245,2023,2037,2039,2
245,2027,2041,2041,2
245,2023,2041,2043,2
245,2026,2041,2043,2
245,2025,2041,2044,2
245,2025,2043,2045,2
245,2024,2041,2045,2
245,2025,2046,2044,2
245,2020,2042,2045,2
245,2023,2046,2044,2
245,2023,2046,2047,2
245,2027,2049,2047,2
245,2029,2049,2050,2
245,2029,2050,2050,2
245,2029,2045,2049,2
245,2028,2048,2046,2
245,2020,2042,2040,2
245,2021,2041,2040,2
245,2022,2041,2043,2
245,2022,2042,2043,2
245,2022,2041,2043,2
245,2026,2046,2044,2
245,2023,2043,2045,2
245,2024,2042,2044,2
245,2024,2042,2041,2
245,2021,2043,2041,2
245,2024,2043,2044,2
245,2024,2047,2047,2
245,2027,2046,2047,2
245,2032,2052,2049,2
245,2029,2050,2049,2
245,2030,2043,2049,2
245,2025,2043,2041,2
245,2025,2038,2040,2
245,2023,2037,2040,2
245,2027,2043,2043,2
245,2023,2039,2044,2
245,2025,2041,2043,2
245,2025,2041,2045,2
245,2025,2043,2045,2
245,2025,2043,2044,2
245,2025,2041,2043,2
245,2026,2039,2041,2
245,2031,2045,2044,2
245,2027,2044,2047,2
245,2028,2047,2047,2
245,2029,2047,2048,2
245,2029,2047,2047,2
245,2028,2041,2045,2
245,2028,2043,2042,2
245,2021,2040,2041,2
245,2023,2043,2041,2
245,2023,2043,2043,2
245,2024,2043,2043,2
245,2025,2043,2044,2
245,2022,2044,2045,2
245,2025,2040,2044,2
245,2028,2045,2045,2
245,2022,2041,2043,2
245,2022,2043,2043,2
245,2025,2043,2046,2
245,2025,2046,2047,2
245,2027,2044,2047,2
245,2031,2050,2048,2
245,2026,2047,2045,2
245,2026,2041,2045,2
245,2026,2041,2040,2
245,2021,2041,2040,2
245,2023,2041,2042,2
245,2021,2043,2044,2
245,2023,2039,2043,2
245,2028,2045,2045,2
245,2025,2043,2046,2
245,2024,2043,2046,2
245,2023,2043,2044,2
245,2023,2042,2045,2
245,2025,2041,2044,2
245,2030,2047,2046,2
245,2027,2046,2048,2
245,2030,2046,2048,2
245,2030,2046,2048,2
245,2027,2044,2048,2
245,2025,2044,2045,2
245,2019,2041,2044,2
245,2020,2037,2041,2
245,2026,2042,2043,2
245,2023,2040,2044,2
245,2023,2042,2044,2
245,2024,2042,2045,2
245,2024,2044,2045,2
245,2024,2041,2044,2
245,2027,2045,2044,2
245,2022,2043,2045,2
245,2025,2045,2045,2
245,2025,2045,2047,2
245,2027,2046,2047,2
245,2028,2046,2048,2
245,2025,2044,2048,2
245,2026,2038,2046,2
245,2021,2042,2044,2
245,2021,2038,2042,2
245,2021,2041,2042,2
245,2023,2041,2045,2
245,2023,2042,2045,2
245,2025,2040,2044,2
245,2029,2046,2046,2
245,2025,2044,2045,2
245,2022,2044,2045,2
245,2022,2043,2044,2
245,2022,2044,2044,2
245,2025,2044,2045,2
245,2022,2045,2047,2
245,2026,2042,2047,2
245,2027,2048,2048,2
245,2027,2045,2046,2
245,2023,2043,2046,2
245,2022,2043,2041,2
245,2022,2040,2041,2
245,2025,2038,2040,2
245,2029,2044,2043,2
245,2024,2042,2043,2
245,2023,2042,2043,2
245,2023,2045,2044,2
245,2023,2044,2044,2
245,2024,2044,2043,2
245,2020,2044,2043,2
245,2022,2040,2042,2
245,2025,2046,2044,2
245,2025,2043,2047,2
245,2027,2045,2047,2
245,2027,2045,2048,2
245,2027,2044,2047,2
245,2027,2038,2044,2
245,2028,2042,2043,2
245,2022,2039,2043,2
245,2022,2039,2043,2
245,2022,2043,2043,2
245,2023,2043,2043,2
245,2025,2043,2044,2
245,2022,2043,2046,2
245,2026,2038,2045,2
245,2023,2044,2045,2
245,2023,2044,2045,2
245,2024,2045,2045,2
245,2026,2045,2048,2
245,2023,2045,2049,2
245,2026,2042,2048,2
245,2030,2048,2049,2
245,2026,2044,2045,2
245,2021,2044,2045,2
245,2021,2041,2043,2
245,2020,2040,2043,2
245,2024,2040,2045,2
245,2021,2039,2046,2
245,2024,2036,2044,2
245,2025,2042,2045,2
245,2025,2045,2045,2
245,2024,2044,2045,2
245,2023,2044,2043,2
245,2019,2043,2044,2
245,2023,2040,2044,2
245,2029,2046,2046,2
245,2026,2045,2048,2
245,2026,2045,2048,2
245,2026,2046,2048,2
245,2024,2043,2048,2
245,2023,2043,2042,2
245,2018,2040,2042,2
245,2021,2036,2041,2
245,2023,2042,2043,2
245,2023,2045,2043,2
245,2023,2045,2043,2
245,2024,2045,2044,2
245,2024,2045,2045,2
245,2024,2040,2044,2
245,2028,2044,2044,2
245,2023,2042,2045,2
245,2024,2042,2045,2
245,2024,2046,2046,2
245,2027,2046,2046,2
245,2029,2046,2048,2
245,2026,2045,2048,2
245,2028,2038,2045,2
245,2023,2042,2043,2
245,2023,2038,2042,2
245,2023,2041,2042,2
245,2024,2041,2044,2
245,2024,2042,2045,2
245,2027,2039,2044,2
245,2031,2045,2046,2
245,2026,2043,2044,2
245,2022,2043,2044,2
245,2022,2043,2043,2
245,2023,2044,2043,2
245,2026,2044,2046,2
245,2023,2043,2047,2
245,2027,2040,2047,2
245,2028,2046,2048,2
245,2028,2043,2045,2
245,2023,2041,2045,2
245,2022,2041,2041,2
245,2022,2039,2042,2
245,2024,2038,2042,2
245,2028,2044,2043,2
245,2024,2042,2044,2
245,2024,2042,2044,2
245,2024,2045,2045,2
245,2024,2044,2045,2
245,2024,2044,2044,2
245,2020,2042,2045,2
245,2023,2039,2044,2
245,2026,2045,2045,2
245,2026,2044,2048,2
245,2027,2046,2048,2
245,2027,2046,2048,2
245,2027,2044,2046,2
245,2025,2039,2043,2
245,2027,2042,2042,2
245,2022,2041,2044,2
245,2025,2043,2044,2
245,2025,2043,2044,2
245,2024,2043,2044,2
245,2026,2043,2045,2
245,2023,2043,2045,2
245,2024,2038,2044,2
245,2022,2044,2043,2
245,2022,2041,2044,2
245,2024,2043,2044,2
245,2026,2043,2046,2
245,2026,2045,2047,2
245,2027,2043,2047,2
245,2030,2049,2048,2
245,2024,2045,2044,2
245,2024,2040,2044,2
245,2024,2040,2042,2
245,2023,2041,2042,2
245,2024,2041,2045,2
245,2021,2042,2045,2
245,2023,2039,2043,2
245,2028,2045,2045,2
245,2024,2043,2045,2
245,2022,2043,2045,2
245,2022,2043,2042,2
245,2022,2044,2043,2
245,2024,2042,2044,2
245,2029,2048,2046,2
245,2026,2048,2048,2
245,2028,2047,2048,2
245,2028,2047,2046,2
245,2024,2044,2046,2
245,2023,2044,2042,2
245,2018,2042,2042,2
245,2021,2039,2041,2
245,2026,2045,2043,2
245,2022,2042,2044,2
245,2022,2044,2044,2
245,2023,2044,2046,2
245,2023,2044,2046,2
245,2023,2041,2044,2
245,2026,2045,2044,2
245,2022,2042,2046,2
245,2025,2045,2045,2
245,2025,2045,2047,2
245,2026,2046,2047,2
245,2027,2046,2048,2
245,2027,2045,2047,2
245,2026,2039,2044,2
245,2028,2042,2043,2
245,2022,2039,2043,2
245,2022,2042,2043,2
245,2023,2042,2044,2
245,2023,2043,2045,2
245,2024,2041,2044,2
245,2027,2046,2045,2
245,2023,2040,2046,2
245,2024,2040,2045,2
245,2024,2040,2043,2
245,2024,2042,2043,2
245,2026,2042,2046,2
245,2023,2044,2047,2
245,2027,2041,2047,2
245,2031,2047,2048,2
245,2026,2044,2044,2
245,2020,2042,2044,2
245,2020,2042,2040,2
245,2020,2041,2042,2
245,2022,2040,2042,2
245,2026,2046,2043,2
245,2022,2040,2045,2
245,2025,2042,2045,2
245,2025,2042,2045,2
245,2023,2042,2045,2
245,2023,2042,2043,2
245,2023,2041,2044,2
245,2025,2039,2044,2
245,2030,2046,2047,2
245,2027,2045,2048,2
245,2026,2047,2048,2
245,2025,2047,2047,2
245,2025,2043,2045,2
245,2023,2039,2042,2
245,2025,2042,2042,2
245,2021,2037,2044,2
245,2024,2040,2044,2
245,2024,2040,2044,2
245,2024,2042,2044,2
245,2026,2042,2045,2
245,2026,2043,2045,2
245,2027,2039,2044,2
245,2029,2043,2044,2
245,2024,2041,2045,2
245,2025,2044,2045,2
245,2026,2044,2047,2
245,2026,2046,2048,2
245,2027,2044,2048,2
245,2029,2050,2048,2
245,2024,2043,2047,2
245,2024,2040,2043,2
245,2023,2040,2043,2
245,2023,2043,2043,2
245,2024,2043,2045,2
245,2024,2043,2045,2
245,2027,2041,2044,2
245,2031,2047,2045,2
245,2026,2045,2045,2
245,2022,2045,2045,2
245,2022,2045,2043,2
245,2022,2046,2044,2
245,2025,2045,2044,2
245,2028,2050,2046,2
245,2025,2047,2048,2
245,2027,2045,2048,2
245,2024,2045,2048,2
245,2024,2042,2048,2
245,2023,2042,2043,2
245,2023,2041,2043,2
245,2024,2040,2042,2
245,2028,2046,2044,2
245,2024,2044,2045,2
245,2026,2045,2045,2
245,2025,2045,2046,2
245,2025,2044,2045,2
245,2023,2041,2045,2
245,2026,2045,2045,2
245,2023,2043,2047,2
245,2026,2046,2046,2
245,2028,2046,2048,2
245,2028,2048,2048,2
245,2028,2048,2048,2
245,2028,2046,2046,2
245,2025,2040,2043,2
245,2027,2043,2043,2
245,2022,2041,2045,2
245,2025,2043,2045,2
245,2025,2043,2045,2
245,2025,2044,2045,2
245,2026,2043,2045,2
245,2028,2048,2046,2
245,2024,2043,2046,2
245,2024,2042,2044,2
245,2024,2042,2045,2
245,2025,2044,2045,2
245,2026,2044,2047,2
245,2026,2046,2048,2
245,2027,2044,2048,2
245,2030,2049,2049,2
245,2025,2043,2048,2
245,2025,2040,2044,2
245,2023,2040,2042,2
245,2023,2042,2043,2
245,2025,2042,2043,2
245,2028,2047,2044,2
245,2024,2044,2046,2
245,2026,2045,2045,2
245,2024,2045,2046,2
245,2024,2044,2046,2
245,2024,2044,2043,2
245,2024,2044,2045,2
245,2026,2042,2045,2
245,2031,2048,2046,2
245,2027,2047,2048,2
245,2030,2046,2048,2
245,2027,2046,2046,2
245,2027,2043,2044,2
245,2023,2040,2044,2
245,2026,2044,2043,2
245,2022,2040,2046,2
245,2025,2041,2045,2
245,2025,2041,2045,2
245,2025,2043,2045,2
245,2026,2043,2047,2
245,2026,2044,2047,2
245,2025,2040,2045,2
245,2028,2044,2045,2
245,2024,2043,2047,2
245,2025,2046,2047,2
245,2027,2046,2048,2
245,2027,2048,2048,2
245,2028,2045,2048,2
245,2029,2049,2048,2
245,2023,2044,2046,2
245,2023,2042,2042,2
245,2023,2042,2041,2
245,2024,2044,2041,2
245,2024,2044,2044,2
245,2024,2044,2045,2
245,2025,2042,2045,2
245,2029,2048,2047,2
245,2025,2045,2045,2
245,2026,2043,2045,2
245,2026,2043,2044,2
245,2026,2045,2045,2
245,2027,2045,2045,2
245,2030,2050,2046,2
245,2027,2048,2048,2
245,2028,2042,2048,2
245,2024,2046,2048,2
245,2024,2042,2048,2
245,2023,2042,2043,2
245,2023,2042,2044,2
245,2025,2042,2044,2
245,2028,2048,2045,2
245,2024,2044,2046,2
245,2027,2045,2045,2
245,2026,2045,2046,2
245,2026,2044,2045,2
245,2024,2042,2045,2
245,2027,2047,2046,2
245,2024,2044,2048,2
245,2028,2041,2048,2
245,2028,2047,2049,2
245,2028,2050,2049,2
245,2027,2050,2048,2
245,2027,2046,2046,2
245,2023,2041,2046,2
245,2025,2044,2045,2
245,2021,2039,2046,2
245,2024,2042,2045,2
245,2024,2042,2045,2
245,2024,2044,2045,2
245,2026,2044,2045,2
245,2027,2049,2045,2
245,2023,2047,2045,2
245,2025,2041,2043,2
245,2027,2046,2045,2
245,2027,2049,2045,2
245,2027,2049,2047,2
245,2027,2049,2048,2
245,2029,2047,2048,2
245,2030,2052,2048,2
245,2025,2044,2047,2
245,2025,2041,2044,2
245,2024,2041,2042,2
245,2024,2044,2043,2
245,2026,2044,2043,2
245,2027,2048,2044,2
245,2024,2048,2046,2
245,2026,2042,2046,2
245,2025,2047,2046,2
245,2025,2046,2046,2
245,2024,2046,2044,2
245,2024,2046,2045,2
245,2027,2045,2045,2
245,2030,2051,2047,2
245,2027,2048,2049,2
245,2029,2048,2048,2
245,2026,2048,2046,2
245,2026,2044,2044,2
245,2023,2042,2044,2
245,2026,2042,2044,2
245,2023,2042,2046,2
245,2026,2038,2045,2
245,2026,2044,2045,2
245,2026,2047,2045,2
245,2025,2047,2047,2
245,2025,2046,2046,2
245,2024,2043,2046,2
245,2027,2047,2046,2
245,2024,2043,2048,2
245,2027,2039,2048,2
245,2029,2046,2049,2
245,2029,2049,2049,2
245,2028,2048,2049,2
245,2027,2048,2046,2
245,2021,2045,2045,2
245,2024,2039,2043,2
245,2026,2044,2044,2
245,2026,2042,2045,2
245,2024,2042,2045,2
245,2024,2044,2045,2
245,2026,2044,2045,2
245,2028,2049,2045,2
245,2024,2046,2046,2
245,2026,2039,2044,2
245,2027,2044,2045,2
245,2027,2047,2046,2
245,2029,2047,2046,2
245,2030,2047,2048,2
245,2027,2047,2049,2
245,2030,2042,2048,2
245,2031,2046,2047,2
245,2025,2041,2043,2
245,2022,2041,2043,2
245,2022,2043,2044,2
245,2025,2043,2044,2
245,2027,2049,2045,2
245,2023,2047,2046,2
245,2027,2042,2046,2
245,2026,2047,2046,2
245,2026,2046,2045,2
245,2024,2045,2045,2
245,2026,2045,2047,2
245,2023,2046,2048,2
245,2026,2044,2048,2
245,2031,2050,2050,2
245,2027,2047,2049,2
245,2024,2047,2049,2
245,2024,2043,2046,2
245,2021,2041,2046,2
245,2023,2041,2044,2
245,2020,2041,2046,2
245,2024,2037,2046,2
245,2025,2044,2046,2
245,2025,2046,2046,2
245,2027,2046,2046,2
245,2027,2046,2046,2
245,2023,2045,2045,2
245,2024,2042,2043,2
245,2030,2047,2045,2
245,2027,2045,2048,2
245,2027,2045,2048,2
245,2027,2048,2049,2
245,2028,2048,2049,2
245,2028,2048,2047,2
245,2023,2043,2046,2
245,2024,2037,2043,2
245,2025,2042,2043,2
245,2025,2041,2046,2
245,2025,2043,2046,2
245,2026,2043,2046,2
245,2026,2045,2047,2
245,2027,2042,2047,2
245,2030,2047,2048,2
245,2024,2044,2046,2
245,2027,2045,2046,2
245,2027,2045,2048,2
245,2029,2046,2048,2
245,2030,2046,2050,2
245,2027,2047,2050,2
245,2029,2043,2049,2
245,2025,2048,2048,2
245,2025,2043,2045,2
245,2022,2043,2045,2
245,2024,2043,2045,2
245,2024,2045,2046,2
245,2025,2042,2045,2
245,2029,2047,2046,2
245,2026,2046,2047,2
245,2028,2045,2047,2
245,2028,2045,2045,2
245,2025,2045,2045,2
245,2027,2045,2045,2
245,2024,2045,2047,2
245,2028,2043,2047,2
245,2033,2049,2049,2
245,2029,2047,2050,2
245,2027,2047,2050,2
245,2025,2047,2046,2
245,2025,2043,2045,2
245,2025,2040,2043,2
245,2029,2046,2045,2
245,2026,2041,2047,2
245,2028,2043,2046,2
245,2028,2043,2047,2
245,2028,2044,2047,2
245,2028,2044,2047,2
245,2024,2044,2047,2
245,2026,2040,2045,2
245,2031,2046,2046,2
245,2027,2045,2048,2
245,2028,2047,2048,2
245,2029,2047,2050,2
245,2029,2048,2050,2
245,2029,2044,2049,2
245,2029,2047,2047,2
245,2023,2044,2047,2
245,2025,2045,2044,2
245,2025,2045,2046,2
245,2026,2045,2046,2
245,2027,2045,2047,2
245,2024,2045,2048,2
245,2028,2042,2048,2
245,2031,2047,2048,2
245,2026,2044,2046,2
245,2024,2045,2046,2
245,2026,2045,2048,2
245,2026,2047,2049,2
245,2028,2046,2049,2
245,2032,2052,2050,2
245,2028,2048,2051,2
245,2029,2044,2048,2
245,2029,2044,2043,2
245,2024,2044,2043,2
245,2025,2044,2043,2
245,2022,2045,2045,2
245,2026,2042,2045,2
245,2030,2047,2047,2
245,2026,2045,2048,2
245,2026,2046,2048,2
245,2025,2046,2046,2
245,2025,2044,2046,2
245,2025,2042,2045,2
245,2029,2048,2047,2
245,2026,2046,2050,2
245,2029,2048,2049,2
245,2029,2048,2049,2
245,2030,2048,2049,2
245,2028,2048,2046,2
245,2022,2045,2045,2
245,2024,2040,2042,2
245,2029,2045,2044,2
245,2026,2044,2046,2
245,2025,2045,2046,2
245,2026,2045,2047,2
245,2026,2046,2047,2
245,2027,2043,2047,2
245,2030,2048,2047,2
245,2025,2045,2046,2
245,2028,2046,2046,2
245,2028,2046,2048,2
245,2030,2048,2048,2
245,2031,2048,2049,2
245,2028,2048,2050,2
245,2029,2044,2049,2
245,2030,2048,2048,2
245,2024,2043,2045,2
245,2022,2044,2045,2
245,2024,2044,2046,2
245,2024,2046,2046,2
245,2027,2044,2045,2
245,2031,2049,2046,2
245,2027,2044,2047,2
245,2029,2045,2046,2
245,2029,2045,2045,2
245,2026,2045,2045,2
245,2027,2045,2047,2
245,2027,2047,2049,2
245,2030,2044,2049,2
245,2035,2050,2050,2
245,2030,2047,2050,2
245,2026,2047,2050,2
245,2025,2047,2046,2
245,2025,2043,2045,2
245,2025,2041,2043,2
245,2029,2047,2045,2
245,2026,2046,2047,2
245,2028,2046,2047,2
245,2028,2046,2048,2
245,2028,2046,2048,2
245,2028,2046,2047,2
245,2024,2044,2046,2
245,2024,2041,2044,2
245,2030,2047,2046,2
245,2027,2046,2049,2
245,2028,2048,2049,2
245,2029,2048,2050,2
245,2029,2048,2050,2
245,2029,2044,2048,2
245,2030,2047,2047,2
245,2024,2044,2045,2
245,2027,2046,2045,2
245,2027,2046,2047,2
245,2027,2046,2047,2
245,2028,2046,2048,2
245,2024,2046,2049,2
245,2027,2042,2048,2
245,2031,2047,2048,2
245,2026,2044,2046,2
245,2026,2046,2046,2
245,2028,2046,2048,2
245,2028,2048,2049,2
245,2030,2046,2049,2
245,2034,2052,2050,2
245,2030,2049,2048,2
245,2025,2049,2048,2
245,2025,2045,2045,2
245,2023,2044,2045,2
245,2026,2044,2047,2
245,2023,2044,2048,2
245,2025,2041,2048,2
245,2026,2046,2048,2
245,2026,2044,2049,2
245,2026,2045,2049,2
245,2026,2045,2047,2
245,2026,2044,2047,2
245,2028,2042,2046,2
245,2033,2049,2048,2
245,2030,2048,2049,2
245,2030,2048,2049,2
245,2030,2050,2049,2
245,2029,2048,2049,2
245,2028,2048,2046,2
245,2022,2043,2045,2
245,2024,2038,2043,2
245,2026,2044,2045,2
245,2026,2048,2045,2
245,2027,2048,2045,2
245,2028,2048,2048,2
245,2025,2048,2049,2
245,2025,2043,2048,2
245,2028,2048,2048,2
245,2024,2045,2048,2
245,2026,2045,2048,2
245,2026,2047,2049,2
245,2029,2047,2049,2
245,2031,2053,2050,2
245,2028,2051,2051,2
245,2032,2044,2050,2
245,2026,2047,2048,2
245,2026,2045,2046,2
245,2024,2045,2046,2
245,2026,2045,2048,2
245,2023,2045,2048,2
245,2026,2041,2047,2
245,2027,2047,2048,2
245,2027,2045,2048,2
245,2025,2045,2048,2
245,2025,2044,2047,2
245,2025,2044,2047,2
245,2029,2050,2048,2
245,2026,2046,2050,2
245,2028,2049,2049,2
245,2030,2049,2051,2
245,2030,2050,2050,2
245,2027,2047,2050,2
245,2027,2047,2046,2
245,2022,2044,2046,2
245,2026,2040,2044,2
245,2027,2046,2047,2
245,2027,2047,2047,2
245,2027,2047,2047,2
245,2027,2048,2048,2
245,2027,2046,2048,2
245,2029,2050,2048,2
245,2024,2043,2048,2
245,2026,2045,2046,2
245,2026,2045,2048,2
245,2026,2048,2049,2
245,2029,2048,2049,2
245,2031,2053,2049,2
245,2027,2050,2049,2
245,2030,2042,2046,2
245,2025,2045,2045,2
245,2025,2044,2045,2
245,2026,2044,2046,2
245,2026,2046,2047,2
245,2026,2043,2046,2
245,2030,2048,2047,2
245,2026,2045,2049,2
245,2028,2045,2048,2
245,2027,2045,2046,2
245,2027,2044,2046,2
245,2028,2044,2046,2
245,2031,2050,2047,2
245,2028,2046,2050,2
245,2030,2048,2050,2
245,2030,2048,2050,2
245,2028,2048,2050,2
245,2025,2048,2047,2
245,2025,2042,2045,2
245,2025,2040,2043,2
245,2030,2046,2045,2
245,2027,2045,2047,2
245,2030,2045,2047,2
245,2030,2045,2048,2
245,2030,2047,2048,2
245,2028,2044,2048,2
245,2029,2049,2048,2
245,2024,2046,2049,2
245,2027,2047,2048,2
245,2027,2047,2049,2
245,2029,2048,2049,2
245,2030,2048,2050,2
245,2030,2049,2050,2
245,2031,2044,2048,2
245,2031,2048,2046,2
245,2024,2044,2044,2
245,2022,2046,2044,2
245,2023,2046,2046,2
245,2023,2046,2046,2
245,2025,2044,2046,2
245,2029,2049,2047,2
245,2026,2046,2048,2
245,2028,2045,2047,2
245,2028,2045,2045,2
245,2026,2046,2045,2
245,2028,2046,2047,2
245,2025,2047,2048,2
245,2028,2045,2048,2
245,2033,2051,2050,2
245,2029,2049,2048,2
245,2025,2047,2048,2
245,2024,2047,2044,2
245,2024,2043,2044,2
245,2025,2041,2043,2
245,2030,2047,2046,2
245,2026,2046,2047,2
245,2029,2046,2047,2
245,2029,2046,2048,2
245,2029,2046,2048,2
245,2029,2046,2047,2
245,2024,2045,2047,2
245,2026,2042,2045,2
245,2027,2048,2046,2
245,2027,2046,2049,2
245,2029,2048,2049,2
245,2029,2048,2050,2
245,2029,2047,2049,2
245,2028,2041,2047,2
245,2030,2045,2045,2
245,2024,2042,2045,2
245,2024,2042,2045,2
245,2024,2045,2046,2
245,2025,2045,2046,2
245,2028,2045,2047,2
245,2025,2043,2048,2
245,2029,2040,2048,2
245,2026,2046,2048,2
245,2026,2042,2047,2
245,2027,2045,2047,2
245,2028,2045,2050,2
245,2028,2047,2051,2
245,2031,2045,2050,2
245,2034,2051,2051,2
245,2029,2048,2047,2
245,2023,2048,2047,2
245,2023,2044,2045,2
245,2022,2044,2045,2
245,2025,2044,2047,2
245,2023,2043,2047,2
245,2026,2040,2046,2
245,2027,2046,2047,2
245,2027,2044,2048,2
245,2025,2045,2048,2
245,2025,2045,2046,2
245,2025,2044,2047,2
245,2027,2042,2047,2
245,2032,2048,2049,2
245,2029,2048,2050,2
245,2029,2048,2050,2
245,2029,2050,2050,2
245,2027,2047,2050,2
245,2026,2047,2045,2
245,2021,2044,2045,2
245,2025,2039,2043,2
245,2027,2045,2045,2
245,2027,2048,2045,2
245,2027,2048,2045,2
245,2028,2048,2048,2
245,2028,2047,2048,2
245,2028,2043,2046,2
245,2031,2047,2046,2
245,2026,2045,2048,2
245,2026,2045,2048,2
245,2026,2048,2049,2
245,2028,2048,2049,2
245,2030,2048,2050,2
245,2027,2048,2050,2
245,2027,2042,2048,2
245,2023,2045,2046,2
245,2023,2041,2044,2
245,2025,2043,2044,2
245,2026,2043,2047,2
245,2026,2044,2047,2
245,2028,2041,2046,2
245,2032,2047,2048,2
245,2028,2044,2047,2
245,2025,2044,2047,2
245,2025,2044,2047,2
245,2027,2044,2047,2
245,2030,2044,2049,2
245,2027,2045,2050,2
245,2030,2042,2050,2
245,2030,2048,2050,2
245,2030,2049,2048,2
245,2026,2046,2048,2
245,2025,2046,2044,2
245,2020,2044,2045,2
245,2023,2041,2044,2
245,2028,2047,2046,2
245,2025,2044,2046,2
245,2026,2044,2046,2
245,2026,2046,2047,2
245,2027,2045,2047,2
245,2028,2045,2046,2
245,2023,2043,2047,2
245,2026,2040,2046,2
245,2028,2047,2048,2
245,2028,2050,2049,2
245,2029,2050,2049,2
245,2030,2050,2050,2
245,2026,2048,2049,2
245,2026,2041,2046,2
245,2023,2044,2044,2
245,2023,2041,2045,2
245,2025,2041,2045,2
245,2025,2044,2046,2
245,2025,2043,2046,2
245,2028,2049,2047,2
245,2025,2047,2048,2
245,2026,2046,2047,2
245,2024,2046,2047,2
245,2024,2046,2047,2
245,2026,2047,2047,2
245,2028,2047,2049,2
245,2025,2047,2050,2
245,2030,2043,2049,2
245,2028,2049,2049,2
245,2028,2047,2049,2
245,2025,2047,2045,2
245,2025,2043,2043,2
245,2024,2042,2043,2
245,2027,2048,2045,2
245,2024,2048,2046,2
245,2025,2042,2045,2
245,2027,2047,2046,2
245,2027,2049,2046,2
245,2026,2047,2046,2
245,2027,2047,2044,2
245,2023,2046,2046,2
245,2028,2042,2046,2
245,2030,2048,2048,2
245,2030,2046,2050,2
245,2029,2046,2050,2
245,2029,2048,2049,2
245,2025,2044,2049,2
245,2025,2047,2046,2
245,2020,2043,2046,2
245,2023,2039,2044,2
245,2025,2045,2046,2
245,2025,2047,2046,2
245,2026,2047,2046,2
245,2027,2047,2048,2
245,2024,2046,2048,2
245,2026,2041,2046,2
245,2030,2045,2046,2
245,2026,2043,2048,2
245,2027,2043,2048,2
245,2027,2047,2049,2
245,2028,2047,2049,2
245,2030,2053,2050,2
245,2027,2050,2050,2
245,2028,2041,2047,2
245,2023,2044,2046,2
245,2023,2044,2045,2
245,2026,2045,2045,2
245,2027,2045,2046,2
245,2024,2045,2047,2
245,2027,2042,2046,2
245,2032,2048,2048,2
245,2028,2045,2047,2
245,2025,2045,2047,2
245,2025,2045,2047,2
245,2026,2045,2047,2
245,2029,2051,2048,2
245,2026,2047,2050,2
245,2029,2043,2049,2
245,2030,2049,2050,2
245,2030,2048,2048,2
245,2024,2045,2048,2
245,2024,2045,2044,2
245,2020,2045,2045,2
245,2022,2042,2045,2
245,2025,2048,2046,2
245,2025,2045,2046,2
245,2026,2045,2046,2
245,2026,2047,2047,2
245,2026,2045,2047,2
245,2027,2049,2047,2
245,2022,2046,2048,2
245,2025,2048,2047,2
245,2028,2048,2049,2
245,2028,2050,2049,2
245,2030,2050,2049,2
245,2030,2050,2050,2
245,2025,2046,2048,2
245,2027,2039,2045,2
245,2025,2043,2044,2
245,2025,2046,2044,2
245,2025,2046,2046,2
245,2025,2046,2046,2
245,2026,2045,2046,2
245,2029,2050,2047,2
245,2026,2047,2048,2
245,2027,2046,2047,2
245,2026,2046,2047,2
245,2026,2047,2047,2
245,2027,2047,2047,2
245,2030,2047,2050,2
245,2027,2047,2051,2
245,2030,2043,2050,2
245,2026,2049,2050,2
245,2026,2044,2045,2
245,2022,2044,2045,2
245,2022,2042,2044,2
245,2024,2042,2044,2
245,2027,2048,2046,2
245,2024,2045,2047,2
245,2026,2046,2047,2
245,2027,2046,2048,2
245,2027,2048,2048,2
245,2026,2046,2048,2
245,2027,2046,2046,2
245,2024,2046,2048,2
245,2029,2043,2048,2
245,2030,2049,2049,2
245,2030,2047,2050,2
245,2030,2047,2050,2
245,2030,2047,2049,2
245,2026,2044,2049,2
245,2026,2047,2046,2
245,2021,2043,2046,2
245,2025,2039,2045,2
245,2027,2045,2047,2
245,2027,2047,2047,2
245,2028,2047,2047,2
245,2029,2047,2048,2
245,2025,2046,2048,2
245,2026,2040,2046,2
245,2027,2045,2046,2
245,2027,2043,2049,2
245,2029,2043,2049,2
245,2029,2047,2050,2
245,2030,2047,2050,2
245,2032,2053,2051,2
245,2027,2049,2050,2
245,2027,2044,2047,2
245,2024,2044,2045,2
245,2024,2044,2045,2
245,2027,2045,2045,2
245,2029,2045,2047,2
245,2024,2043,2048,2
245,2029,2040,2048,2
245,2027,2047,2049,2
245,2027,2048,2049,2
245,2026,2048,2046,2
245,2026,2046,2047,2
245,2027,2045,2047,2
245,2030,2051,2049,2
245,2027,2048,2051,2
245,2030,2049,2050,2
245,2028,2049,2049,2
245,2028,2046,2046,2
245,2024,2043,2046,2
245,2026,2043,2044,2
245,2022,2043,2046,2
245,2028,2039,2046,2
245,2028,2045,2046,2
245,2028,2048,2046,2
245,2028,2048,2048,2
245,2028,2048,2048,2
245,2027,2045,2048,2
245,2029,2049,2048,2
245,2024,2044,2050,2
245,2027,2048,2049,2
245,2027,2048,2049,2
245,2027,2050,2049,2
245,2029,2049,2049,2
245,2030,2049,2049,2
245,2025,2045,2048,2
245,2026,2038,2045,2
245,2026,2043,2045,2
245,2026,2046,2045,2
245,2026,2046,2047,2
245,2026,2046,2047,2
245,2026,2044,2046,2
245,2030,2050,2047,2
245,2027,2046,2048,2
245,2028,2045,2047,2
245,2027,2045,2046,2
245,2027,2046,2047,2
245,2029,2046,2047,2
245,2032,2052,2049,2
245,2029,2048,2051,2
245,2030,2048,2050,2
245,2026,2048,2050,2
245,2026,2045,2050,2
245,2025,2045,2046,2
245,2025,2044,2046,2
245,2027,2043,2045,2
245,2031,2049,2046,2
245,2027,2047,2046,2
245,2030,2048,2046,2
245,2029,2048,2048,2
245,2029,2047,2048,2
245,2027,2045,2048,2
245,2029,2049,2048,2
245,2026,2046,2050,2
245,2028,2048,2049,2
245,2031,2048,2051,2
245,2031,2050,2051,2
245,2030,2050,2051,2
245,2030,2047,2050,2
245,2028,2042,2047,2
245,2030,2045,2046,2
245,2024,2044,2047,2
245,2028,2046,2047,2
245,2027,2046,2047,2
245,2027,2046,2047,2
245,2028,2045,2047,2
245,2030,2050,2048,2
245,2026,2046,2048,2
245,2026,2045,2046,2
245,2026,2045,2047,2
245,2027,2046,2047,2
245,2029,2046,2049,2
245,2029,2048,2050,2
245,2031,2046,2049,2
245,2033,2052,2050,2
245,2028,2048,2046,2
245,2022,2047,2046,2
245,2022,2047,2044,2
245,2022,2046,2046,2
245,2024,2044,2046,2
245,2028,2049,2047,2
245,2025,2043,2049,2
245,2028,2045,2048,2
245,2028,2045,2047,2
245,2027,2045,2047,2
245,2027,2045,2045,2
245,2023,2046,2046,2
245,2026,2044,2046,2
245,2032,2050,2049,2
245,2029,2048,2050,2
245,2029,2049,2050,2
245,2028,2049,2050,2
245,2028,2045,2047,2
245,2026,2041,2044,2
245,2029,2045,2045,2
245,2025,2045,2048,2
245,2028,2045,2048,2
245,2028,2045,2048,2
245,2028,2046,2048,2
245,2029,2046,2049,2
245,2026,2046,2049,2
245,2027,2041,2047,2
245,2027,2046,2047,2
245,2027,2043,2048,2
245,2029,2046,2048,2
245,2030,2046,2049,2
245,2030,2048,2050,2
245,2031,2045,2050,2
245,2033,2050,2050,2
245,2027,2045,2046,2
245,2023,2045,2046,2
245,2023,2044,2046,2
245,2025,2045,2046,2
245,2028,2051,2047,2
245,2025,2047,2048,2
245,2028,2043,2047,2
245,2027,2049,2048,2
245,2027,2049,2048,2
245,2025,2047,2048,2
245,2027,2047,2047,2
245,2024,2047,2049,2
245,2029,2044,2049,2
245,2030,2050,2050,2
245,2030,2048,2051,2
245,2029,2048,2051,2
245,2029,2047,2049,2
245,2025,2043,2049,2
245,2026,2046,2046,2
245,2022,2042,2047,2
245,2028,2039,2047,2
245,2028,2046,2047,2
245,2028,2047,2047,2
245,2028,2047,2047,2
245,2028,2047,2048,2
245,2024,2046,2048,2
245,2027,2041,2046,2
245,2029,2046,2047,2
245,2029,2045,2050,2
245,2030,2045,2050,2
245,2030,2048,2050,2
245,2031,2048,2050,2
245,2032,2053,2050,2
245,2027,2047,2049,2
245,2026,2043,2046,2
245,2025,2043,2046,2
245,2025,2045,2047,2
245,2027,2045,2047,2
245,2029,2045,2047,2
245,2025,2044,2048,2
245,2029,2041,2048,2
245,2027,2047,2048,2
245,2027,2044,2046,2
245,2025,2044,2046,2
245,2025,2045,2047,2
245,2027,2045,2047,2
245,2031,2051,2048,2
245,2028,2050,2050,2
245,2030,2050,2049,2
245,2028,2050,2049,2
245,2028,2047,2046,2
245,2024,2044,2046,2
245,2026,2044,2045,2
245,2023,2042,2047,2
245,2029,2038,2047,2
245,2028,2045,2047,2
245,2028,2048,2047,2
245,2028,2048,2048,2
245,2028,2047,2048,2
245,2026,2044,2048,2
245,2029,2048,2048,2
245,2026,2045,2049,2
245,2029,2047,2049,2
245,2029,2047,2050,2
245,2029,2049,2050,2
245,2030,2048,2050,2
245,2030,2052,2049,2
245,2024,2047,2047,2
245,2025,2040,2044,2
245,2026,2044,2045,2
245,2026,2048,2045,2
245,2026,2048,2046,2
245,2026,2047,2046,2
245,2027,2045,2046,2
245,2030,2050,2048,2
245,2026,2046,2049,2
245,2027,2045,2047,2
245,2027,2045,2046,2
245,2027,2047,2047,2
245,2030,2047,2047,2
245,2032,2053,2049,2
245,2029,2051,2051,2
245,2032,2044,2050,2
245,2027,2048,2049,2
245,2027,2044,2049,2
245,2025,2044,2045,2
245,2025,2044,2046,2
245,2026,2043,2045,2
245,2029,2049,2046,2
245,2025,2046,2048,2
245,2028,2046,2048,2
245,2028,2046,2048,2
245,2028,2046,2048,2
245,2026,2045,2048,2
245,2029,2049,2048,2
245,2026,2049,2049,2
245,2028,2044,2049,2
245,2030,2050,2050,2
245,2030,2051,2050,2
245,2029,2051,2050,2
245,2029,2047,2048,2
245,2026,2043,2045,2
245,2028,2046,2045,2
245,2024,2041,2047,2
245,2027,2043,2047,2
245,2026,2043,2047,2
245,2026,2045,2047,2
245,2027,2044,2047,2
245,2029,2050,2047,2
245,2025,2045,2047,2
245,2025,2046,2045,2
245,2028,2046,2047,2
245,2028,2049,2047,2
245,2029,2049,2049,2
245,2029,2050,2050,2
245,2030,2048,2050,2
245,2032,2052,2050,2
245,2026,2044,2048,2
245,2026,2041,2045,2
245,2025,2041,2044,2
245,2025,2044,2046,2
245,2027,2044,2046,2
245,2030,2049,2047,2
245,2026,2047,2048,2
245,2028,2042,2048,2
245,2027,2047,2048,2
245,2027,2046,2048,2
245,2027,2046,2046,2
245,2027,2047,2047,2
245,2028,2045,2047,2
245,2032,2051,2049,2
245,2029,2048,2051,2
245,2031,2048,2050,2
245,2028,2048,2048,2
245,2028,2044,2046,2
245,2024,2042,2046,2
245,2027,2046,2046,2
245,2024,2045,2048,2
245,2026,2040,2048,2
245,2027,2045,2048,2
245,2027,2048,2048,2
245,2027,2048,2048,2
245,2027,2047,2048,2
245,2027,2044,2046,2
245,2030,2048,2046,2
245,2026,2045,2048,2
245,2029,2048,2048,2
245,2029,2048,2050,2
245,2029,2049,2050,2
245,2030,2047,2050,2
245,2029,2051,2048,2
245,2023,2046,2046,2
245,2025,2040,2043,2
245,2027,2044,2044,2
245,2027,2047,2044,2
245,2027,2047,2045,2
245,2027,2046,2046,2
245,2028,2045,2046,2
245,2031,2050,2047,2
245,2026,2044,2047,2
245,2027,2043,2045,2
245,2027,2043,2045,2
245,2027,2047,2047,2
245,2029,2047,2047,2
245,2032,2052,2049,2
245,2028,2048,2050,2
245,2031,2042,2049,2
245,2025,2046,2048,2
245,2025,2043,2048,2
245,2024,2043,2044,2
245,2024,2044,2046,2
245,2027,2043,2046,2
245,2030,2048,2047,2
245,2026,2045,2048,2
245,2029,2046,2047,2
245,2028,2046,2047,2
245,2028,2046,2046,2
245,2026,2045,2046,2
245,2029,2050,2047,2
245,2026,2049,2049,2
245,2030,2044,2049,2
245,2031,2050,2050,2
245,2031,2051,2050,2
245,2029,2051,2049,2
245,2029,2046,2047,2
245,2028,2041,2044,2
245,2030,2045,2044,2
245,2026,2043,2047,2
245,2028,2045,2047,2
245,2027,2045,2046,2
245,2027,2046,2047,2
245,2028,2045,2047,2
245,2029,2050,2047,2
245,2024,2047,2047,2
245,2027,2042,2045,2
245,2028,2047,2047,2
245,2028,2050,2047,2
245,2029,2050,2049,2
245,2029,2051,2050,2
245,2030,2048,2049,2
245,2031,2052,2049,2
245,2025,2044,2048,2
245,2025,2042,2045,2
245,2025,2042,2044,2
245,2025,2046,2045,2
245,2026,2045,2045,2
245,2028,2050,2046,2
245,2025,2047,2048,2
245,2028,2042,2048,2
245,2026,2047,2048,2
245,2026,2046,2048,2
245,2026,2046,2046,2
245,2026,2047,2047,2
245,2029,2046,2047,2
245,2032,2052,2048,2
245,2028,2047,2050,2
245,2031,2046,2049,2
245,2027,2046,2046,2
245,2027,2043,2045,2
245,2024,2042,2045,2
245,2027,2047,2045,2
245,2024,2045,2047,2
245,2027,2040,2046,2
245,2028,2046,2047,2
245,2028,2048,2047,2
245,2027,2048,2048,2
245,2027,2047,2048,2
245,2025,2044,2048,2
245,2029,2048,2048,2
245,2026,2046,2050,2
245,2029,2048,2049,2
245,2029,2048,2050,2
245,2029,2050,2050,2
245,2028,2047,2050,2
245,2028,2050,2048,2
245,2022,2045,2047,2
245,2023,2039,2044,2
245,2026,2045,2045,2
245,2026,2048,2045,2
245,2026,2048,2046,2
245,2026,2047,2047,2
245,2027,2045,2047,2
245,2029,2050,2047,2
245,2024,2043,2047,2
245,2025,2044,2045,2
245,2026,2044,2046,2
245,2026,2047,2047,2
245,2028,2047,2047,2
245,2031,2052,2049,2
245,2028,2048,2050,2
245,2030,2041,2048,2
245,2024,2045,2047,2
245,2024,2043,2047,2
245,2024,2043,2044,2
245,2024,2045,2046,2
245,2025,2043,2046,2
245,2028,2048,2047,2
245,2025,2043,2049,2
245,2027,2045,2048,2
245,2026,2045,2046,2
245,2026,2044,2045,2
245,2026,2043,2045,2
245,2029,2049,2046,2
245,2026,2046,2049,2
245,2030,2042,2049,2
245,2031,2048,2050,2
245,2031,2050,2050,2
245,2028,2050,2047,2
245,2028,2045,2045,2
245,2027,2041,2042,2
245,2030,2045,2043,2
245,2026,2043,2045,2
245,2028,2044,2045,2
245,2028,2044,2046,2
245,2028,2046,2047,2
245,2028,2045,2047,2
245,2029,2049,2047,2
245,2024,2045,2047,2
245,2026,2046,2045,2
245,2028,2046,2047,2
245,2028,2048,2047,2
245,2029,2048,2049,2
245,2029,2049,2049,2
245,2030,2046,2048,2
245,2031,2049,2047,2
245,2024,2044,2043,2
245,2025,2043,2043,2
245,2026,2043,2044,2
245,2026,2045,2045,2
245,2026,2043,2045,2
245,2029,2048,2046,2
245,2026,2045,2048,2
245,2028,2045,2047,2
245,2028,2045,2045,2
245,2025,2045,2045,2
245,2026,2045,2045,2
245,2026,2046,2047,2
245,2028,2043,2047,2
245,2033,2049,2049,2
245,2029,2047,2050,2
245,2027,2047,2050,2
245,2025,2047,2045,2
245,2025,2042,2044,2
245,2026,2040,2042,2
245,2030,2046,2044,2
245,2026,2045,2045,2
245,2028,2045,2045,2
245,2028,2045,2047,2
245,2028,2045,2047,2
245,2028,2045,2047,2
245,2024,2045,2047,2
245,2024,2041,2044,2
245,2026,2046,2045,2
245,2026,2044,2048,2
245,2028,2046,2048,2
245,2029,2046,2048,2
245,2029,2047,2048,2
245,2029,2043,2047,2
245,2030,2047,2045,2
245,2024,2043,2043,2
245,2022,2043,2043,2
245,2022,2046,2045,2
245,2025,2045,2045,2
245,2027,2045,2046,2
245,2023,2045,2047,2
245,2026,2041,2047,2
245,2025,2046,2047,2
245,2025,2043,2045,2
245,2024,2045,2045,2
245,2026,2045,2047,2
245,2026,2047,2048,2
245,2029,2045,2048,2
245,2033,2051,2049,2
245,2029,2048,2048,2
245,2023,2048,2048,2
245,2023,2045,2045,2
245,2021,2044,2045,2
245,2024,2044,2044,2
245,2021,2042,2046,2
245,2024,2039,2045,2
245,2026,2045,2046,2
245,2026,2043,2048,2
245,2025,2044,2048,2
245,2025,2044,2046,2
245,2025,2043,2046,2
245,2026,2041,2045,2
245,2031,2047,2047,2
245,2028,2047,2049,2
245,2027,2047,2049,2
245,2027,2050,2049,2
245,2028,2048,2049,2
245,2027,2048,2046,2
245,2021,2045,2045,2
245,2024,2040,2043,2
245,2026,2045,2044,2
245,2026,2043,2045,2
245,2025,2044,2045,2
245,2026,2044,2046,2
245,2026,2045,2047,2
245,2026,2042,2046,2
245,2028,2047,2045,2
245,2023,2044,2045,2
245,2023,2044,2045,2
245,2023,2047,2046,2
245,2026,2047,2046,2
245,2028,2047,2049,2
245,2025,2046,2049,2
245,2027,2041,2048,2
245,2023,2045,2046,2
245,2023,2040,2043,2
245,2021,2042,2043,2
245,2023,2042,2045,2
245,2023,2044,2045,2
245,2024,2042,2045,2
245,2028,2047,2047,2
245,2025,2046,2047,2
245,2027,2044,2047,2
245,2027,2044,2045,2
245,2025,2044,2045,2
245,2027,2044,2046,2
245,2024,2045,2047,2
245,2029,2042,2047,2
245,2029,2048,2048,2
245,2029,2045,2048,2
245,2026,2045,2048,2
245,2024,2045,2044,2
245,2024,2041,2044,2
245,2024,2040,2042,2
245,2028,2046,2045,2
245,2024,2044,2045,2
245,2023,2044,2045,2
245,2023,2046,2045,2
245,2025,2046,2045,2
245,2026,2046,2045,2
245,2022,2042,2045,2
245,2024,2039,2043,2
245,2026,2045,2045,2
245,2026,2044,2048,2
245,2027,2046,2048,2
245,2028,2046,2049,2
245,2028,2046,2048,2
245,2028,2041,2046,2
245,2029,2044,2044,2
245,2023,2041,2043,2
245,2026,2043,2043,2
245,2026,2043,2044,2
245,2026,2044,2044,2
245,2027,2044,2045,2
245,2024,2045,2047,2
245,2026,2041,2046,2
245,2023,2046,2046,2
245,2023,2042,2045,2
245,2024,2044,2045,2
245,2026,2044,2047,2
245,2026,2045,2048,2
245,2028,2043,2048,2
245,2032,2049,2050,2
245,2028,2046,2046,2
245,2022,2046,2046,2
245,2022,2043,2043,2
245,2020,2042,2043,2
245,2023,2042,2044,2
245,2021,2043,2045,2
245,2023,2039,2045,2
245,2025,2045,2046,2
245,2025,2043,2047,2
245,2024,2044,2047,2
245,2024,2044,2045,2
245,2024,2042,2046,2
245,2026,2040,2045,2
245,2031,2046,2047,2
245,2027,2045,2049,2
245,2027,2045,2049,2
245,2027,2047,2049,2
245,2026,2045,2049,2
245,2025,2045,2046,2
245,2019,2042,2045,2
245,2021,2037,2043,2
245,2024,2043,2045,2
245,2024,2046,2045,2
245,2025,2046,2045,2
245,2027,2046,2045,2
245,2024,2046,2045,2
245,2025,2042,2044,2
245,2028,2046,2045,2
245,2023,2042,2047,2
245,2025,2042,2047,2
245,2025,2046,2047,2
245,2027,2046,2047,2
245,2030,2051,2047,2
245,2026,2047,2048,2
245,2027,2040,2047,2
245,2022,2044,2045,2
245,2022,2043,2044,2
245,2022,2043,2044,2
245,2024,2043,2047,2
245,2021,2041,2047,2
245,2024,2038,2045,2
245,2029,2044,2047,2
245,2025,2042,2046,2
245,2024,2042,2046,2
245,2024,2042,2045,2
245,2024,2042,2045,2
245,2028,2048,2046,2
245,2025,2047,2048,2
245,2028,2042,2048,2
245,2028,2048,2049,2
245,2028,2049,2047,2
245,2025,2046,2047,2
245,2024,2046,2042,2
245,2019,2043,2043,2
245,2022,2040,2042,2
245,2025,2045,2044,2
245,2025,2042,2045,2
245,2024,2042,2045,2
245,2024,2044,2045,2
245,2025,2043,2045,2
245,2027,2048,2045,2
245,2022,2042,2045,2
245,2024,2038,2043,2
245,2027,2044,2045,2
245,2027,2047,2046,2
245,2028,2047,2046,2
245,2029,2047,2049,2
245,2025,2044,2048,2
245,2027,2037,2045,2
245,2023,2041,2044,2
245,2023,2043,2044,2
245,2024,2043,2044,2
245,2024,2045,2045,2
245,2024,2044,2045,2
245,2027,2049,2045,2
245,2024,2046,2046,2
245,2026,2044,2045,2
245,2024,2044,2045,2
245,2024,2043,2045,2
245,2026,2043,2045,2
245,2029,2043,2048,2
245,2026,2044,2049,2
245,2029,2040,2048,2
245,2028,2047,2048,2
245,2028,2042,2045,2
245,2024,2042,2045,2
245,2024,2040,2043,2
245,2023,2039,2043,2
245,2027,2045,2044,2
245,2024,2040,2046,2
245,2026,2042,2045,2
245,2026,2042,2045,2
245,2026,2044,2046,2
245,2024,2043,2046,2
245,2025,2047,2044,2
245,2021,2045,2045,2
245,2025,2041,2045,2
245,2027,2046,2047,2
245,2027,2048,2047,2
245,2027,2048,2048,2
245,2027,2048,2048,2
245,2027,2044,2046,2
245,2027,2047,2044,2
245,2021,2042,2044,2
245,2023,2044,2042,2
245,2023,2044,2044,2
245,2023,2045,2044,2
245,2025,2044,2044,2
245,2028,2049,2045,2
245,2024,2045,2046,2
245,2028,2039,2045,2
245,2026,2044,2045,2
245,2026,2046,2045,2
245,2027,2046,2046,2
245,2027,2047,2047,2
245,2028,2045,2047,2
245,2031,2050,2048,2
245,2027,2044,2049,2
245,2027,2041,2047,2
245,2024,2041,2042,2
245,2024,2040,2042,2
245,2025,2041,2042,2
245,2027,2047,2044,2
245,2024,2045,2045,2
245,2029,2040,2044,2
245,2028,2046,2045,2
245,2028,2047,2045,2
245,2027,2047,2045,2
245,2027,2044,2045,2
245,2027,2042,2044,2
245,2031,2048,2046,2
245,2027,2045,2049,2
245,2029,2046,2048,2
245,2028,2046,2048,2
245,2028,2046,2047,2
245,2024,2042,2047,2
245,2024,2045,2045,2
245,2020,2040,2046,2
245,2024,2037,2045,2
245,2025,2044,2046,2
245,2025,2046,2046,2
245,2025,2046,2046,2
245,2025,2047,2046,2
245,2025,2044,2046,2
245,2027,2048,2045,2
245,2022,2041,2046,2
245,2025,2044,2045,2
245,2025,2044,2047,2
245,2025,2047,2048,2
245,2027,2047,2048,2
245,2029,2052,2048,2
245,2024,2048,2047,2
245,2023,2043,2044,2
245,2022,2043,2044,2
245,2022,2044,2044,2
245,2023,2044,2045,2
245,2023,2045,2045,2
245,2023,2043,2044,2
245,2027,2048,2046,2
245,2024,2045,2046,2
245,2026,2044,2045,2
245,2024,2044,2044,2
245,2024,2045,2045,2
245,2026,2045,2045,2
245,2029,2051,2047,2
245,2026,2048,2049,2
245,2028,2048,2048,2
245,2026,2048,2049,2
245,2026,2045,2049,2
245,2023,2045,2044,2
245,2023,2041,2043,2
245,2025,2040,2041,2
245,2028,2046,2043,2
245,2024,2044,2044,2
245,2026,2045,2044,2
245,2026,2045,2046,2
245,2026,2045,2046,2
245,2024,2042,2046,2
245,2026,2046,2045,2
245,2022,2044,2046,2
245,2025,2046,2046,2
245,2028,2046,2048,2
245,2028,2048,2048,2
245,2028,2048,2048,2
245,2028,2047,2048,2
245,2026,2042,2046,2
245,2027,2045,2044,2
245,2021,2041,2045,2
245,2024,2043,2043,2
245,2024,2043,2045,2
245,2024,2044,2045,2
245,2025,2044,2045,2
245,2028,2049,2046,2
245,2024,2046,2047,2
245,2024,2043,2045,2
245,2025,2043,2045,2
245,2025,2045,2045,2
245,2027,2045,2047,2
245,2027,2046,2048,2
245,2028,2044,2048,2
245,2031,2050,2049,2
245,2027,2045,2046,2
245,2027,2041,2046,2
245,2024,2041,2042,2
245,2024,2040,2043,2
245,2026,2041,2043,2
245,2028,2047,2044,2
245,2024,2042,2046,2
245,2026,2044,2045,2
245,2026,2044,2046,2
245,2026,2044,2046,2
245,2025,2044,2044,2
245,2025,2043,2045,2
245,2027,2042,2044,2
245,2031,2048,2046,2
245,2027,2048,2048,2
245,2030,2048,2048,2
245,2029,2048,2048,2
245,2029,2046,2046,2
245,2024,2042,2046,2
245,2025,2045,2044,2
245,2020,2045,2045,2
245,2023,2040,2044,2
245,2024,2045,2045,2
245,2024,2046,2045,2
245,2025,2046,2047,2
245,2025,2046,2047,2
245,2025,2043,2046,2
245,2027,2047,2045,2
245,2022,2041,2046,2
245,2025,2044,2045,2
245,2026,2044,2048,2
245,2026,2046,2048,2
245,2027,2045,2048,2
245,2029,2050,2048,2
245,2024,2045,2047,2
245,2027,2038,2044,2
245,2024,2042,2043,2
245,2024,2045,2043,2
245,2024,2045,2045,2
245,2024,2045,2045,2
245,2024,2043,2044,2
245,2028,2048,2046,2
245,2025,2045,2047,2
245,2025,2043,2045,2
245,2024,2043,2043,2
245,2024,2045,2044,2
245,2026,2045,2044,2
245,2029,2050,2046,2
245,2026,2048,2048,2
245,2029,2042,2048,2
245,2025,2047,2048,2
245,2025,2044,2048,2
245,2023,2044,2042,2
245,2023,2041,2042,2
245,2024,2040,2042,2
245,2027,2046,2044,2
245,2023,2043,2045,2
245,2025,2044,2045,2
245,2025,2044,2046,2
245,2025,2045,2045,2
245,2024,2043,2045,2
245,2026,2047,2044,2
245,2022,2045,2046,2
245,2026,2041,2046,2
245,2027,2047,2047,2
245,2027,2049,2047,2
245,2027,2049,2048,2
245,2027,2047,2047,2
245,2023,2043,2047,2
245,2024,2046,2044,2
245,2020,2040,2045,2
245,2023,2043,2044,2
245,2023,2043,2044,2
245,2023,2044,2045,2
245,2024,2044,2045,2
245,2027,2044,2046,2
245,2023,2041,2046,2
245,2025,2036,2044,2
245,2026,2041,2045,2
245,2026,2046,2045,2
245,2026,2046,2048,2
245,2026,2048,2049,2
245,2027,2046,2049,2
245,2030,2051,2049,2
245,2025,2044,2048,2
245,2025,2041,2045,2
245,2023,2041,2042,2
245,2023,2043,2043,2
245,2024,2043,2043,2
245,2026,2048,2044,2
245,2022,2046,2045,2
245,2025,2041,2044,2
245,2024,2046,2045,2
245,2024,2045,2045,2
245,2023,2045,2043,2
245,2023,2044,2044,2
245,2026,2044,2044,2
245,2029,2049,2046,2
245,2026,2044,2048,2
245,2028,2046,2048,2
245,2026,2046,2048,2
245,2026,2043,2045,2
245,2022,2040,2045,2
245,2023,2040,2042,2
245,2020,2040,2044,2
245,2024,2037,2044,2
245,2024,2043,2045,2
245,2024,2046,2045,2
245,2024,2046,2046,2
245,2024,2046,2046,2
245,2024,2043,2046,2
245,2026,2047,2045,2
245,2022,2044,2047,2
245,2025,2046,2046,2
245,2027,2046,2048,2
245,2027,2048,2048,2
245,2028,2047,2048,2
245,2028,2047,2047,2
245,2023,2042,2045,2
245,2023,2036,2042,2
245,2023,2041,2042,2
245,2023,2045,2042,2
245,2023,2045,2044,2
245,2023,2045,2045,2
245,2024,2044,2045,2
245,2027,2049,2046,2
245,2023,2044,2046,2
245,2024,2042,2045,2
245,2024,2042,2045,2
245,2024,2045,2045,2
245,2026,2045,2045,2
245,2028,2045,2047,2
245,2025,2044,2048,2
245,2027,2040,2047,2
245,2024,2046,2046,2
245,2024,2040,2042,2
245,2021,2040,2042,2
245,2021,2040,2042,2
245,2023,2040,2042,2
245,2025,2046,2043,2
245,2021,2042,2045,2
245,2023,2038,2044,2
245,2024,2044,2045,2
245,2024,2045,2044,2
245,2022,2043,2044,2
245,2024,2043,2044,2
245,2021,2044,2046,2
245,2024,2041,2046,2
245,2026,2047,2047,2
245,2026,2045,2048,2
245,2025,2045,2048,2
245,2025,2044,2046,2
245,2021,2041,2046,2
245,2022,2044,2044,2
245,2018,2041,2045,2
245,2023,2037,2044,2
245,2024,2043,2045,2
245,2024,2045,2045,2
245,2025,2045,2045,2
245,2026,2045,2046,2
245,2022,2044,2045,2
245,2023,2039,2043,2
245,2025,2044,2044,2
245,2025,2043,2047,2
245,2026,2043,2047,2
245,2026,2045,2047,2
245,2027,2045,2047,2
245,2028,2050,2047,2
245,2023,2044,2046,2
245,2024,2037,2042,2
245,2022,2041,2042,2
245,2022,2044,2043,2
245,2023,2044,2043,2
245,2024,2044,2044,2
245,2021,2044,2045,2
245,2024,2040,2044,2
245,2028,2045,2045,2
245,2024,2041,2043,2
245,2022,2041,2043,2
245,2022,2042,2044,2
245,2025,2043,2044,2
245,2028,2049,2045,2
245,2025,2047,2047,2
245,2028,2042,2047,2
245,2025,2047,2047,2
245,2025,2044,2044,2
245,2021,2042,2044,2
245,2022,2042,2042,2
245,2019,2042,2044,2
245,2022,2039,2044,2
245,2027,2044,2045,2
245,2023,2042,2046,2
245,2023,2042,2046,2
245,2023,2043,2045,2
245,2022,2041,2045,2
245,2024,2045,2044,2
245,2021,2044,2046,2
245,2025,2040,2045,2
245,2027,2046,2047,2
245,2027,2048,2047,2
245,2027,2048,2047,2
245,2026,2048,2044,2
245,2020,2044,2043,2
245,2022,2038,2040,2
245,2026,2042,2042,2
245,2022,2040,2044,2
245,2022,2040,2044,2
245,2022,2042,2045,2
245,2024,2042,2045,2
245,2026,2047,2045,2
245,2022,2044,2045,2
245,2024,2037,2043,2
245,2025,2042,2043,2
245,2025,2045,2044,2
245,2026,2046,2044,2
245,2028,2046,2047,2
245,2025,2046,2048,2
245,2027,2041,2048,2
245,2029,2045,2048,2
245,2023,2040,2043,2
245,2020,2040,2043,2
245,2020,2040,2043,2
245,2023,2040,2043,2
245,2025,2046,2044,2
245,2021,2042,2045,2
245,2026,2038,2044,2
245,2024,2044,2045,2
245,2024,2045,2044,2
245,2022,2044,2044,2
245,2024,2044,2045,2
245,2021,2044,2046,2
245,2024,2041,2046,2
245,2030,2047,2047,2
245,2026,2045,2047,2
245,2024,2045,2047,2
245,2024,2043,2044,2
245,2020,2040,2044,2
245,2022,2040,2042,2
245,2018,2039,2044,2
245,2021,2035,2044,2
245,2022,2041,2045,2
245,2022,2044,2045,2
245,2024,2044,2045,2
245,2024,2044,2044,2
245,2020,2042,2044,2
245,2023,2038,2041,2
245,2028,2044,2043,2
245,2024,2042,2046,2
245,2026,2042,2046,2
245,2026,2046,2047,2
245,2027,2045,2047,2
245,2027,2050,2046,2
245,2022,2045,2045,2
245,2023,2037,2042,2
245,2022,2041,2042,2
245,2022,2044,2043,2
245,2024,2044,2043,2
245,2025,2044,2044,2
245,2022,2044,2045,2
245,2024,2040,2044,2
245,2027,2045,2045,2
245,2022,2041,2043,2
245,2022,2041,2043,2
245,2022,2043,2044,2
245,2025,2044,2044,2
245,2028,2050,2045,2
245,2025,2046,2046,2
245,2028,2041,2046,2
245,2024,2046,2045,2
245,2024,2042,2042,2
245,2020,2041,2042,2
245,2022,2041,2042,2
245,2019,2041,2044,2
245,2022,2037,2043,2
245,2027,2043,2044,2
245,2024,2041,2045,2
245,2023,2041,2045,2
245,2023,2042,2044,2
245,2021,2040,2044,2
245,2024,2045,2044,2
245,2021,2044,2046,2
245,2025,2041,2045,2
245,2027,2047,2046,2
245,2027,2049,2046,2
245,2025,2047,2046,2
245,2024,2047,2043,2
245,2018,2044,2042,2
245,2018,2038,2040,2
245,2021,2043,2042,2
245,2021,2041,2043,2
245,2021,2041,2043,2
245,2021,2043,2044,2
245,2023,2043,2044,2
245,2025,2048,2045,2
245,2021,2043,2045,2
245,2023,2037,2043,2
245,2024,2042,2044,2
245,2024,2045,2045,2
245,2027,2045,2045,2
245,2028,2045,2047,2
245,2025,2043,2047,2
245,2028,2038,2046,2
245,2022,2042,2044,2
245,2022,2041,2044,2
245,2021,2041,2041,2
245,2021,2042,2042,2
245,2024,2041,2042,2
245,2026,2046,2043,2
245,2022,2043,2045,2
245,2024,2039,2045,2
245,2024,2045,2045,2
245,2024,2044,2044,2
245,2022,2044,2044,2
245,2025,2044,2045,2
245,2022,2044,2047,2
245,2025,2040,2046,2
245,2026,2046,2047,2
245,2026,2043,2046,2
245,2023,2043,2046,2
245,2023,2041,2043,2
245,2020,2038,2043,2
245,2023,2042,2042,2
245,2020,2041,2044,2
245,2022,2043,2043,2
245,2024,2043,2044,2
245,2024,2045,2045,2
245,2025,2044,2045,2
245,2025,2044,2044,2
245,2020,2041,2044,2
245,2024,2038,2042,2
245,2026,2044,2044,2
245,2026,2042,2046,2
245,2027,2042,2046,2
245,2027,2045,2047,2
245,2027,2044,2047,2
245,2027,2048,2046,2
245,2021,2042,2044,2
245,2022,2035,2041,2
245,2023,2040,2041,2
245,2023,2044,2043,2
245,2023,2044,2043,2
245,2025,2044,2044,2
245,2022,2044,2045,2
245,2025,2039,2044,2
245,2028,2044,2045,2
245,2023,2040,2043,2
245,2022,2040,2043,2
245,2022,2043,2044,2
245,2025,2044,2044,2
245,2028,2050,2046,2
245,2025,2046,2047,2
245,2029,2040,2047,2
245,2024,2044,2046,2
245,2024,2041,2043,2
245,2021,2041,2043,2
245,2023,2041,2043,2
245,2020,2041,2044,2
245,2023,2038,2043,2
245,2027,2043,2044,2
245,2024,2041,2045,2
245,2023,2041,2045,2
245,2023,2042,2044,2
245,2022,2041,2044,2
245,2025,2046,2045,2
245,2022,2045,2046,2
245,2026,2040,2046,2
245,2027,2046,2047,2
245,2027,2048,2047,2
245,2026,2046,2047,2
245,2025,2046,2044,2
245,2019,2043,2042,2
245,2022,2039,2040,2
245,2027,2045,2042,2
245,2023,2042,2043,2
245,2022,2042,2043,2
245,2022,2043,2044,2
245,2025,2043,2044,2
245,2027,2043,2045,2
245,2022,2041,2045,2
245,2025,2036,2042,2
245,2026,2042,2044,2
245,2026,2046,2045,2
245,2027,2046,2045,2
245,2028,2046,2048,2
245,2025,2046,2048,2
245,2025,2040,2046,2
245,2026,2043,2045,2
245,2020,2039,2043,2
245,2020,2039,2043,2
245,2020,2042,2044,2
245,2023,2041,2044,2
245,2025,2046,2044,2
245,2022,2042,2045,2
245,2027,2038,2045,2
245,2025,2044,2045,2
245,2025,2044,2044,2
245,2024,2044,2044,2
245,2026,2044,2046,2
245,2023,2045,2047,2
245,2026,2042,2047,2
245,2030,2048,2049,2
245,2026,2045,2046,2
245,2022,2045,2046,2
245,2022,2040,2043,2
245,2020,2039,2043,2
245,2023,2039,2043,2
245,2020,2039,2045,2
245,2023,2035,2044,2
245,2024,2042,2045,2
245,2024,2045,2045,2
245,2025,2045,2045,2
245,2025,2045,2044,2
245,2020,2042,2044,2
245,2023,2039,2043,2
245,2026,2045,2044,2
245,2026,2043,2047,2
245,2027,2043,2047,2
245,2027,2045,2047,2
245,2026,2043,2047,2
245,2025,2047,2045,2
245,2019,2042,2044,2
245,2021,2036,2041,2
245,2023,2041,2043,2
245,2023,2044,2043,2
245,2023,2044,2043,2
245,2024,2044,2044,2
245,2021,2044,2045,2
245,2023,2039,2044,2
245,2021,2044,2044,2
245,2021,2041,2044,2
245,2023,2041,2044,2
245,2023,2044,2045,2
245,2026,2045,2045,2
245,2028,2050,2046,2
245,2025,2047,2047,2
245,2027,2041,2046,2
245,2022,2045,2044,2
245,2022,2042,2042,2
245,2020,2042,2042,2
245,2023,2042,2043,2
245,2020,2042,2044,2
245,2024,2039,2043,2
245,2029,2045,2044,2
245,2025,2042,2044,2
245,2023,2042,2044,2
245,2023,2042,2043,2
245,2022,2041,2043,2
245,2025,2046,2044,2
245,2022,2045,2046,2
245,2026,2041,2046,2
245,2027,2047,2048,2
245,2027,2048,2048,2
245,2024,2045,2048,2
245,2023,2045,2043,2
245,2018,2042,2043,2
245,2020,2038,2041,2
245,2026,2044,2043,2
245,2022,2041,2044,2
245,2022,2041,2044,2
245,2022,2043,2045,2
245,2025,2043,2045,2
245,2026,2047,2045,2
245,2021,2042,2044,2
245,2024,2038,2042,2
245,2026,2044,2044,2
245,2026,2047,2045,2
245,2027,2047,2045,2
245,2028,2047,2046,2
245,2024,2046,2046,2
245,2024,2040,2044,2
245,2026,2043,2043,2
245,2020,2039,2042,2
245,2021,2039,2042,2
245,2021,2043,2043,2
245,2022,2042,2043,2
245,2025,2047,2043,2
245,2021,2045,2044,2
245,2026,2039,2044,2
245,2024,2044,2044,2
245,2024,2043,2043,2
245,2024,2044,2043,2
245,2026,2044,2045,2
245,2023,2045,2047,2
245,2027,2042,2047,2
245,2031,2048,2048,2
245,2026,2044,2045,2
245,2021,2044,2045,2
245,2021,2041,2043,2
245,2019,2040,2043,2
245,2022,2040,2043,2
245,2019,2040,2044,2
245,2023,2036,2043,2
245,2024,2042,2044,2
245,2024,2045,2045,2
245,2023,2044,2045,2
245,2023,2044,2044,2
245,2018,2041,2045,2
245,2023,2039,2044,2
