Group ID,Avg Short,Avg Long1,Avg Long2,Emitter
0,2221,2223,2072,2
0,2015,1997,2023,1
0,2036,2034,2025,2
240,2042,2039,2054,1
240,2040,2039,2050,1
240,2040,2038,2042,1
240,2039,2030,2048,1
240,2036,2038,2044,1
240,2039,2034,2036,1
240,2036,2031,2039,1
240,2036,2035,2043,1
240,2039,2042,2043,1
240,2040,2042,2048,1
240,2040,2047,2048,1
240,2042,2044,2050,1
240,2037,2048,2052,1
240,2038,2049,2041,1
240,2039,2053,2047,1
240,2042,2053,2053,1
240,2042,2056,2055,1
240,2045,2056,2055,1
240,2042,2055,2059,1
240,2042,2057,2050,1
240,2042,2048,2055,1
240,2042,2054,2050,1
240,2039,2055,2050,1
240,2043,2055,2049,1
240,2043,2052,2058,1
240,2044,2056,2047,1
240,2047,2046,2053,1
240,2043,2051,2055,1
240,2038,2048,2051,1
240,2041,2048,2044,1
240,2041,2045,2052,1
240,2043,2054,2052,1
240,2048,2042,2054,1
240,2043,2044,2060,1
240,2047,2050,2054,1
240,2044,2046,2062,1
240,2044,2040,2062,1
240,2041,2040,2046,1
240,2041,2031,2042,1
240,2036,2033,2035,1
240,2043,2028,2030,1
240,2040,2026,2043,1
240,2042,2038,2034,1
240,2039,2029,2037,1
240,2039,2026,2033,1
240,2039,2024,2033,1
240,2041,2024,2024,1
240,2039,2019,2035,1
240,2039,2031,2030,1
240,2051,2024,2033,1
240,2045,2026,2033,1
240,2042,2026,2041,1
240,2042,2030,2032,1
240,2038,2021,2032,1
240,2033,2034,2028,1
240,2036,2029,2023,1
240,2032,2026,2027,1
240,2037,2028,2021,1
240,2036,2033,2021,1
240,2037,2027,2021,1
240,2033,2027,2029,1
240,2037,2027,2021,1
240,2031,2019,2031,1
240,2032,2026,2022,1
240,2033,2020,2027,1
240,2037,2020,2027,1
240,2037,2044,2038,1
240,2038,2045,2038,1
240,2035,2055,2051,1
240,2041,2058,2040,1
240,2039,2045,2053,1
240,2030,2055,2047,1
240,2036,2057,2051,1
240,2040,2057,2051,1
240,2040,2057,2055,1
240,2044,2062,2047,1
240,2045,2052,2059,1
240,2036,2063,2057,1
240,2041,2056,2038,1
240,2039,2056,2047,1
240,2039,2051,2057,1
240,2040,2063,2057,1
240,2044,2063,2061,1
240,2040,2069,2064,1
240,2047,2066,2058,1
240,2043,2064,2068,1
240,2044,2054,2072,1
240,2040,2063,2072,1
240,2044,2063,2063,1
240,2044,2060,2069,1
240,2049,2065,2053,1
240,2051,2057,2067,1
240,2048,2069,2064,1
240,2044,2069,2069,1
240,2044,2047,2057,1
240,2041,2044,2057,1
240,2044,2044,2045,1
240,2037,2032,2055,1
240,2040,2047,2039,1
240,2052,2035,2045,1
240,2044,2041,2046,1
240,2043,2035,2046,1
240,2043,2035,2042,1
240,2043,2031,2047,1
240,2038,2040,2034,1
240,2047,2026,2030,1
240,2039,2029,2051,1
240,2045,2044,2036,1
240,2045,2034,2038,1
240,2041,2022,2038,1
240,2036,2022,2036,1
240,2038,2019,2025,1
240,2031,2015,2030,1
240,2035,2018,2020,1
240,2033,2009,2029,1
240,2035,2008,2024,1
240,2032,2008,2031,1
240,2032,2013,2023,1
240,2030,2009,2039,1
240,2031,2021,2029,1
240,2032,2015,2029,1
240,2028,2020,2027,1
240,2028,2017,2027,1
240,2033,2024,2027,1
240,2033,2024,2040,1
240,2033,2034,2030,1
240,2034,2027,2047,1
240,2028,2046,2045,1
240,2034,2042,2030,1
240,2029,2030,2042,1
240,2029,2036,2046,1
240,2029,2044,2042,1
240,2032,2040,2042,1
240,2029,2058,2050,1
240,2037,2057,2038,1
240,2035,2042,2055,1
240,2028,2052,2045,1
240,2031,2056,2045,1
240,2036,2056,2052,1
240,2036,2059,2059,1
240,2044,2062,2051,1
240,2043,2062,2065,1
240,2044,2069,2057,1
240,2046,2058,2064,1
240,2048,2067,2059,1
240,2048,2063,2066,1
240,2043,2067,2066,1
240,2043,2055,2070,1
240,2041,2064,2066,1
240,2048,2059,2066,1
240,2042,2065,2071,1
240,2046,2062,2071,1
240,2048,2062,2058,1
240,2048,2051,2062,1
240,2047,2058,2062,1
240,2052,2041,2054,1
240,2043,2041,2063,1
240,2048,2051,2048,1
240,2046,2044,2044,1
240,2046,2040,2048,1
240,2046,2047,2048,1
240,2049,2047,2046,1
240,2040,2040,2055,1
240,2041,2049,2039,1
240,2047,2037,2043,1
240,2041,2033,2043,1
240,2037,2033,2038,1
240,2037,2031,2031,1
240,2039,2027,2031,1
240,2039,2033,2026,1
240,2037,2025,2030,1
240,2034,2031,2028,1
240,2043,2024,2025,1
240,2038,2025,2021,1
240,2039,2022,2021,1
240,2037,2022,2030,1
240,2039,2020,2031,1
240,2036,2023,2036,1
240,2040,2023,2029,1
240,2037,2020,2038,1
240,2036,2020,2030,1
240,2036,2033,2030,1
240,2038,2030,2030,1
240,2036,2045,2039,1
240,2042,2045,2035,1
240,2039,2038,2050,1
240,2035,2046,2044,1
240,2037,2049,2044,1
240,2036,2043,2044,1
240,2032,2043,2043,1
240,2036,2045,2036,1
240,2036,2038,2047,1
240,2033,2050,2045,1
240,2037,2043,2039,1
240,2037,2043,2047,1
240,2037,2048,2054,1
240,2036,2052,2054,1
240,2037,2052,2050,1
240,2036,2056,2048,1
240,2041,2051,2048,1
240,2040,2056,2057,1
240,2043,2059,2051,1
240,2045,2063,2061,1
240,2046,2063,2059,1
240,2046,2058,2060,1
240,2047,2055,2053,1
240,2045,2054,2058,1
240,2046,2060,2054,1
240,2048,2052,2059,1
240,2048,2057,2058,1
240,2047,2058,2058,1
240,2048,2058,2053,1
240,2042,2052,2056,1
240,2042,2054,2046,1
240,2045,2045,2045,1
240,2041,2049,2051,1
240,2042,2049,2046,1
240,2042,2049,2048,1
240,2042,2050,2053,1
240,2041,2053,2049,1
240,2044,2048,2047,1
240,2039,2046,2052,1
240,2040,2049,2043,1
240,2040,2046,2043,1
240,2039,2043,2043,1
240,2038,2043,2044,1
240,2038,2039,2042,1
240,2036,2039,2045,1
240,2038,2040,2042,1
240,2036,2037,2042,1
240,2034,2037,2039,1
240,2033,2037,2035,1
240,2033,2037,2035,1
240,2039,2037,2035,1
240,2036,2040,2031,1
240,2036,2039,2034,1
240,2036,2039,2039,1
240,2038,2039,2036,1
240,2038,2037,2036,1
240,2037,2037,2040,1
240,2037,2039,2040,1
240,2039,2041,2047,1
240,2038,2048,2051,1
240,2041,2048,2049,1
240,2040,2044,2054,1
240,2039,2046,2055,1
240,2039,2046,2050,1
240,2036,2045,2050,1
240,2036,2048,2050,1
240,2040,2050,2051,1
240,2043,2050,2058,1
240,2042,2055,2060,1
240,2043,2058,2060,1
240,2044,2058,2058,1
240,2044,2054,2057,1
240,2042,2052,2057,1
240,2041,2048,2057,1
240,2040,2051,2057,1
240,2043,2051,2055,1
240,2046,2054,2055,1
240,2046,2053,2059,1
240,2046,2054,2059,1
240,2046,2054,2053,1
240,2042,2052,2052,1
240,2044,2052,2046,1
240,2047,2051,2052,1
240,2048,2049,2052,1
240,2048,2049,2054,1
240,2048,2046,2054,1
240,2046,2047,2054,1
240,2046,2046,2046,1
240,2041,2041,2049,1
240,2040,2044,2040,1
240,2042,2037,2038,1
240,2038,2038,2037,1
240,2038,2038,2037,1
240,2040,2038,2038,1
240,2037,2035,2043,1
240,2035,2038,2040,1
240,2038,2035,2037,1
240,2033,2035,2045,1
240,2034,2035,2037,1
240,2034,2040,2035,1
240,2038,2037,2035,1
240,2037,2037,2046,1
240,2040,2040,2042,1
240,2037,2037,2048,1
240,2038,2042,2040,1
240,2037,2036,2042,1
240,2037,2035,2039,1
240,2037,2035,2043,1
240,2037,2041,2037,1
240,2037,2034,2045,1
240,2036,2039,2039,1
240,2037,2035,2037,1
240,2034,2035,2038,1
240,2034,2035,2037,1
240,2036,2041,2037,1
240,2035,2041,2038,1
240,2035,2047,2039,1
240,2039,2047,2049,1
240,2037,2058,2055,1
240,2042,2059,2046,1
240,2042,2062,2053,1
240,2041,2062,2052,1
240,2041,2058,2049,1
240,2037,2055,2049,1
240,2035,2059,2053,1
240,2041,2060,2046,1
240,2041,2050,2056,1
240,2041,2057,2060,1
240,2043,2062,2060,1
240,2045,2062,2057,1
240,2045,2059,2060,1
240,2047,2062,2051,1
240,2047,2056,2058,1
240,2047,2062,2058,1
240,2050,2063,2061,1
240,2052,2063,2059,1
240,2052,2058,2064,1
240,2048,2062,2064,1
240,2048,2051,2065,1
240,2045,2056,2063,1
240,2047,2056,2058,1
240,2046,2055,2063,1
240,2046,2060,2065,1
240,2045,2060,2065,1
240,2045,2049,2064,1
240,2042,2052,2051,1
240,2046,2042,2045,1
240,2039,2039,2056,1
240,2042,2046,2042,1
240,2042,2036,2037,1
240,2042,2036,2042,1
240,2045,2038,2042,1
240,2050,2033,2038,1
240,2044,2031,2051,1
240,2045,2042,2040,1
240,2051,2033,2044,1
240,2044,2032,2044,1
240,2038,2032,2034,1
240,2038,2030,2026,1
240,2040,2026,2026,1
240,2042,2038,2025,1
240,2041,2033,2031,1
240,2037,2034,2032,1
240,2034,2031,2032,1
240,2034,2032,2024,1
240,2036,2026,2024,1
240,2036,2026,2031,1
240,2039,2026,2031,1
240,2035,2027,2038,1
240,2043,2032,2032,1
240,2040,2026,2033,1
240,2039,2026,2033,1
240,2039,2043,2032,1
240,2036,2039,2032,1
240,2030,2052,2036,1
240,2038,2053,2028,1
240,2035,2041,2044,1
240,2032,2051,2038,1
240,2036,2061,2042,1
240,2037,2057,2042,1
240,2032,2057,2042,1
240,2038,2061,2033,1
240,2035,2047,2048,1
240,2030,2059,2044,1
240,2037,2054,2035,1
240,2042,2054,2047,1
240,2042,2063,2062,1
240,2044,2070,2062,1
240,2045,2070,2064,1
240,2044,2076,2061,1
240,2049,2069,2062,1
240,2042,2073,2068,1
240,2048,2075,2070,1
240,2049,2082,2070,1
240,2052,2082,2069,1
240,2052,2078,2070,1
240,2055,2074,2063,1
240,2047,2070,2071,1
240,2047,2074,2057,1
240,2044,2074,2063,1
240,2044,2055,2062,1
240,2046,2059,2062,1
240,2052,2059,2055,1
240,2043,2053,2068,1
240,2048,2064,2049,1
240,2052,2047,2055,1
240,2045,2055,2062,1
240,2042,2052,2052,1
240,2047,2052,2046,1
240,2047,2048,2060,1
240,2046,2060,2045,1
240,2054,2044,2049,1
240,2046,2049,2063,1
240,2052,2056,2048,1
240,2052,2048,2039,1
240,2045,2032,2039,1
240,2042,2032,2032,1
240,2042,2025,2032,1
240,2039,2028,2034,1
240,2048,2026,2025,1
240,2043,2020,2042,1
240,2040,2014,2031,1
240,2036,2014,2029,1
240,2036,2020,2021,1
240,2032,2019,2027,1
240,2039,2026,2021,1
240,2037,2021,2033,1
240,2036,2032,2029,1
240,2036,2027,2034,1
240,2036,2030,2034,1
240,2030,2030,2036,1
240,2030,2032,2025,1
240,2028,2022,2043,1
240,2025,2039,2036,1
240,2032,2036,2029,1
240,2029,2035,2040,1
240,2029,2035,2051,1
240,2029,2043,2042,1
240,2031,2035,2042,1
240,2026,2054,2042,1
240,2035,2050,2028,1
240,2032,2039,2040,1
240,2036,2047,2032,1
240,2036,2053,2032,1
240,2041,2053,2050,1
240,2041,2065,2056,1
240,2048,2062,2058,1
240,2040,2066,2067,1
240,2045,2069,2053,1
240,2043,2056,2063,1
240,2049,2068,2064,1
240,2049,2073,2076,1
240,2052,2076,2076,1
240,2049,2073,2085,1
240,2050,2079,2073,1
240,2050,2067,2075,1
240,2038,2075,2072,1
240,2043,2067,2072,1
240,2048,2067,2054,1
240,2048,2059,2064,1
240,2049,2069,2046,1
240,2055,2054,2054,1
240,2048,2059,2065,1
240,2052,2061,2053,1
240,2051,2055,2041,1
240,2051,2048,2047,1
240,2048,2057,2047,1
240,2054,2042,2045,1
240,2047,2047,2061,1
240,2053,2059,2051,1
240,2056,2052,2063,1
240,2051,2043,2063,1
240,2046,2043,2045,1
240,2046,2034,2036,1
240,2043,2030,2036,1
240,2046,2028,2026,1
240,2042,2025,2039,1
240,2042,2037,2034,1
240,2039,2031,2040,1
240,2039,2032,2032,1
240,2039,2027,2032,1
240,2039,2033,2024,1
240,2037,2027,2028,1
240,2035,2035,2026,1
240,2046,2031,2026,1
240,2042,2038,2026,1
240,2039,2038,2047,1
240,2039,2045,2041,1
240,2035,2037,2041,1
240,2031,2051,2040,1
240,2036,2046,2034,1
240,2033,2041,2043,1
240,2035,2048,2038,1
240,2037,2055,2037,1
240,2037,2047,2037,1
240,2034,2047,2042,1
240,2039,2047,2033,1
240,2034,2039,2043,1
240,2032,2048,2038,1
240,2035,2042,2037,1
240,2040,2042,2041,1
240,2040,2058,2055,1
240,2047,2062,2055,1
240,2045,2062,2061,1
240,2047,2067,2054,1
240,2048,2058,2057,1
240,2040,2064,2057,1
240,2043,2062,2060,1
240,2043,2066,2060,1
240,2045,2066,2060,1
240,2046,2070,2061,1
240,2050,2064,2062,1
240,2044,2067,2066,1
240,2046,2067,2056,1
240,2043,2067,2059,1
240,2043,2058,2058,1
240,2046,2063,2058,1
240,2051,2063,2058,1
240,2048,2062,2065,1
240,2048,2064,2056,1
240,2049,2058,2059,1
240,2046,2054,2055,1
240,2044,2055,2055,1
240,2046,2055,2050,1
240,2042,2052,2054,1
240,2044,2059,2046,1
240,2048,2056,2049,1
240,2046,2059,2057,1
240,2046,2059,2053,1
240,2046,2052,2047,1
240,2042,2048,2047,1
240,2041,2048,2043,1
240,2040,2045,2040,1
240,2037,2046,2034,1
240,2043,2046,2034,1
240,2043,2046,2043,1
240,2043,2046,2043,1
240,2043,2046,2046,1
240,2043,2048,2042,1
240,2040,2046,2042,1
240,2040,2048,2041,1
240,2039,2046,2043,1
240,2039,2049,2041,1
240,2039,2049,2041,1
240,2037,2049,2041,1
240,2038,2049,2044,1
240,2041,2051,2044,1
240,2040,2050,2049,1
240,2038,2055,2049,1
240,2039,2054,2047,1
240,2044,2057,2047,1
240,2046,2057,2055,1
240,2046,2062,2056,1
240,2048,2062,2061,1
240,2046,2068,2060,1
240,2048,2065,2056,1
240,2047,2060,2056,1
240,2047,2060,2055,1
240,2048,2063,2055,1
240,2050,2063,2054,1
240,2049,2065,2054,1
240,2049,2063,2046,1
240,2049,2061,2052,1
240,2050,2063,2054,1
240,2047,2065,2054,1
240,2048,2065,2050,1
240,2048,2063,2053,1
240,2048,2064,2044,1
240,2050,2061,2050,1
240,2050,2065,2056,1
240,2052,2065,2056,1
240,2052,2068,2051,1
240,2049,2063,2051,1
240,2047,2063,2046,1
240,2045,2056,2047,1
240,2044,2057,2044,1
240,2047,2057,2044,1
240,2045,2058,2054,1
240,2048,2055,2049,1
240,2047,2055,2052,1
240,2047,2054,2049,1
240,2044,2054,2047,1
240,2046,2057,2041,1
240,2045,2052,2047,1
240,2046,2056,2041,1
240,2046,2054,2050,1
240,2046,2054,2050,1
240,2045,2054,2051,1
240,2045,2058,2045,1
240,2045,2052,2049,1
240,2043,2060,2048,1
240,2046,2056,2045,1
240,2047,2059,2044,1
240,2047,2059,2046,1
240,2047,2063,2046,1
240,2048,2059,2053,1
240,2045,2068,2054,1
240,2047,2066,2048,1
240,2044,2058,2050,1
240,2044,2063,2043,1
240,2044,2065,2043,1
240,2046,2065,2052,1
240,2046,2072,2055,1
240,2049,2074,2056,1
240,2047,2079,2064,1
240,2049,2081,2059,1
240,2048,2083,2062,1
240,2048,2083,2058,1
240,2048,2081,2060,1
240,2047,2082,2060,1
240,2049,2082,2065,1
240,2051,2083,2064,1
240,2054,2077,2067,1
240,2054,2084,2064,1
240,2052,2081,2064,1
240,2054,2081,2058,1
240,2054,2073,2061,1
240,2056,2079,2047,1
240,2061,2073,2056,1
240,2060,2079,2065,1
240,2064,2081,2062,1
240,2064,2081,2062,1
240,2064,2075,2065,1
240,2058,2079,2065,1
240,2059,2069,2062,1
240,2054,2071,2069,1
240,2057,2076,2058,1
240,2057,2073,2068,1
240,2057,2070,2068,1
240,2055,2070,2061,1
240,2055,2063,2057,1
240,2049,2061,2052,1
240,2050,2060,2043,1
240,2048,2054,2053,1
240,2050,2063,2042,1
240,2050,2059,2047,1
240,2050,2057,2044,1
240,2055,2056,2044,1
240,2055,2062,2038,1
240,2054,2054,2046,1
240,2051,2059,2038,1
240,2054,2055,2040,1
240,2054,2059,2040,1
240,2053,2059,2049,1
240,2053,2067,2042,1
240,2053,2061,2053,1
240,2050,2076,2051,1
240,2054,2069,2044,1
240,2047,2061,2046,1
240,2047,2064,2047,1
240,2047,2070,2044,1
240,2050,2066,2044,1
240,2046,2084,2051,1
240,2052,2080,2046,1
240,2048,2067,2056,1
240,2044,2075,2047,1
240,2045,2077,2047,1
240,2048,2077,2054,1
240,2048,2083,2054,1
240,2052,2082,2053,1
240,2049,2089,2063,1
240,2055,2094,2059,1
240,2056,2082,2071,1
240,2058,2095,2070,1
240,2058,2094,2070,1
240,2054,2093,2070,1
240,2052,2091,2076,1
240,2055,2097,2068,1
240,2058,2088,2073,1
240,2050,2100,2076,1
240,2057,2099,2076,1
240,2060,2099,2070,1
240,2060,2088,2077,1
240,2059,2095,2056,1
240,2061,2078,2061,1
240,2057,2086,2070,1
240,2063,2089,2061,1
240,2066,2091,2062,1
240,2066,2086,2074,1
240,2063,2095,2074,1
240,2066,2079,2071,1
240,2058,2080,2079,1
240,2061,2086,2059,1
240,2059,2079,2070,1
240,2059,2075,2070,1
240,2058,2075,2061,1
240,2058,2071,2059,1
240,2055,2070,2055,1
240,2060,2067,2044,1
240,2056,2058,2059,1
240,2055,2067,2043,1
240,2050,2056,2037,1
240,2050,2054,2031,1
240,2055,2052,2031,1
240,2056,2058,2029,1
240,2053,2048,2043,1
240,2050,2058,2036,1
240,2059,2053,2035,1
240,2053,2054,2035,1
240,2048,2054,2038,1
240,2048,2056,2030,1
240,2048,2050,2047,1
240,2046,2069,2046,1
240,2054,2067,2042,1
240,2050,2059,2049,1
240,2049,2065,2053,1
240,2049,2068,2043,1
240,2047,2060,2043,1
240,2042,2080,2043,1
240,2051,2077,2036,1
240,2047,2065,2048,1
240,2044,2074,2039,1
240,2048,2080,2039,1
240,2051,2080,2058,1
240,2051,2090,2059,1
240,2049,2087,2059,1
240,2045,2095,2069,1
240,2053,2097,2060,1
240,2054,2083,2072,1
240,2060,2099,2077,1
240,2060,2102,2082,1
240,2059,2100,2082,1
240,2055,2099,2088,1
240,2058,2105,2076,1
240,2059,2091,2078,1
240,2047,2103,2076,1
240,2056,2100,2076,1
240,2062,2100,2066,1
240,2062,2093,2078,1
240,2063,2104,2078,1
240,2066,2087,2079,1
240,2059,2092,2084,1
240,2064,2092,2067,1
240,2065,2090,2056,1
240,2065,2084,2066,1
240,2063,2095,2066,1
240,2068,2079,2065,1
240,2060,2082,2080,1
240,2066,2091,2062,1
240,2065,2084,2074,1
240,2061,2077,2074,1
240,2056,2077,2055,1
240,2056,2066,2047,1
240,2049,2066,2043,1
240,2056,2064,2035,1
240,2053,2056,2053,1
240,2054,2068,2042,1
240,2050,2060,2042,1
240,2050,2058,2035,1
240,2053,2055,2035,1
240,2055,2059,2029,1
240,2055,2052,2041,1
240,2053,2063,2035,1
240,2065,2060,2038,1
240,2062,2064,2038,1
240,2060,2064,2036,1
240,2060,2068,2032,1
240,2057,2059,2050,1
240,2050,2076,2047,1
240,2056,2070,2042,1
240,2050,2063,2048,1
240,2050,2070,2060,1
240,2050,2077,2055,1
240,2050,2068,2055,1
240,2044,2085,2057,1
240,2051,2080,2046,1
240,2045,2067,2055,1
240,2040,2076,2046,1
240,2045,2083,2046,1
240,2052,2083,2060,1
240,2052,2087,2065,1
240,2058,2087,2061,1
240,2053,2093,2072,1
240,2056,2097,2064,1
240,2056,2084,2068,1
240,2058,2094,2062,1
240,2058,2092,2069,1
240,2057,2095,2069,1
240,2057,2092,2074,1
240,2059,2097,2073,1
240,2063,2088,2074,1
240,2053,2095,2077,1
240,2057,2091,2077,1
240,2058,2091,2061,1
240,2058,2082,2066,1
240,2058,2088,2050,1
240,2063,2078,2055,1
240,2058,2080,2069,1
240,2062,2084,2060,1
240,2060,2082,2054,1
240,2060,2077,2057,1
240,2056,2080,2057,1
240,2058,2071,2046,1
240,2053,2071,2059,1
240,2056,2079,2047,1
240,2060,2074,2054,1
240,2057,2072,2054,1
240,2053,2072,2050,1
240,2053,2066,2044,1
240,2048,2062,2045,1
240,2050,2063,2040,1
240,2050,2060,2049,1
240,2051,2066,2046,1
240,2052,2065,2048,1
240,2052,2064,2046,1
240,2053,2061,2046,1
240,2051,2067,2044,1
240,2052,2062,2044,1
240,2047,2063,2041,1
240,2051,2062,2040,1
240,2051,2066,2040,1
240,2052,2066,2056,1
240,2052,2070,2055,1
240,2052,2067,2055,1
240,2048,2079,2057,1
240,2052,2073,2051,1
240,2048,2066,2054,1
240,2050,2071,2057,1
240,2050,2079,2058,1
240,2054,2076,2058,1
240,2052,2084,2063,1
240,2056,2082,2062,1
240,2054,2074,2067,1
240,2047,2080,2062,1
240,2050,2079,2062,1
240,2053,2079,2055,1
240,2053,2079,2060,1
240,2056,2080,2050,1
240,2055,2078,2059,1
240,2053,2081,2061,1
240,2056,2075,2060,1
240,2056,2079,2052,1
240,2056,2074,2056,1
240,2052,2077,2056,1
240,2055,2074,2058,1
240,2054,2078,2064,1
240,2059,2076,2061,1
240,2058,2078,2067,1
240,2058,2077,2067,1
240,2055,2077,2059,1
240,2055,2072,2055,1
240,2050,2072,2049,1
240,2052,2071,2046,1
240,2052,2069,2056,1
240,2054,2073,2051,1
240,2052,2073,2053,1
240,2052,2075,2052,1
240,2052,2071,2052,1
240,2050,2072,2045,1
240,2048,2064,2047,1
240,2044,2064,2041,1
240,2048,2063,2040,1
240,2046,2069,2040,1
240,2046,2069,2048,1
240,2046,2066,2048,1
240,2046,2063,2052,1
240,2042,2068,2052,1
240,2045,2067,2047,1
240,2042,2061,2047,1
240,2043,2065,2044,1
240,2043,2067,2045,1
240,2047,2069,2045,1
240,2047,2076,2052,1
240,2052,2077,2050,1
240,2050,2068,2054,1
240,2045,2071,2051,1
240,2048,2070,2051,1
240,2051,2070,2054,1
240,2051,2076,2059,1
240,2054,2078,2059,1
240,2056,2081,2066,1
240,2058,2081,2067,1
240,2058,2076,2068,1
240,2058,2079,2063,1
240,2058,2078,2063,1
240,2054,2079,2063,1
240,2055,2077,2066,1
240,2055,2079,2069,1
240,2058,2076,2068,1
240,2053,2078,2068,1
240,2054,2078,2068,1
240,2053,2078,2056,1
240,2053,2070,2057,1
240,2050,2072,2044,1
240,2052,2066,2046,1
240,2048,2066,2057,1
240,2052,2070,2050,1
240,2052,2071,2051,1
240,2052,2067,2053,1
240,2050,2069,2053,1
240,2052,2065,2048,1
240,2047,2062,2056,1
240,2048,2065,2043,1
240,2052,2058,2047,1
240,2050,2061,2047,1
240,2047,2061,2051,1
240,2047,2064,2047,1
240,2045,2061,2053,1
240,2045,2069,2045,1
240,2045,2060,2047,1
240,2041,2060,2041,1
240,2039,2059,2039,1
240,2039,2064,2036,1
240,2044,2060,2036,1
240,2044,2071,2037,1
240,2047,2065,2040,1
240,2041,2061,2043,1
240,2043,2064,2038,1
240,2041,2067,2038,1
240,2041,2067,2045,1
240,2041,2071,2045,1
240,2043,2068,2045,1
240,2038,2080,2050,1
240,2044,2079,2044,1
240,2042,2066,2051,1
240,2041,2075,2046,1
240,2041,2076,2046,1
240,2042,2072,2046,1
240,2040,2072,2046,1
240,2047,2076,2042,1
240,2048,2066,2053,1
240,2043,2078,2054,1
240,2048,2083,2054,1
240,2052,2083,2058,1
240,2052,2083,2064,1
240,2051,2087,2064,1
240,2053,2083,2069,1
240,2055,2091,2069,1
240,2058,2085,2068,1
240,2050,2091,2071,1
240,2055,2087,2076,1
240,2052,2090,2076,1
240,2053,2090,2069,1
240,2050,2092,2070,1
240,2055,2090,2063,1
240,2051,2091,2071,1
240,2055,2087,2071,1
240,2055,2087,2063,1
240,2055,2079,2067,1
240,2054,2082,2067,1
240,2057,2070,2058,1
240,2049,2066,2068,1
240,2052,2075,2050,1
240,2057,2068,2059,1
240,2054,2065,2057,1
240,2054,2068,2057,1
240,2058,2068,2060,1
240,2052,2062,2069,1
240,2052,2071,2051,1
240,2057,2060,2054,1
240,2051,2066,2057,1
240,2050,2066,2057,1
240,2050,2061,2043,1
240,2050,2054,2043,1
240,2048,2064,2036,1
240,2048,2055,2041,1
240,2043,2055,2038,1
240,2049,2052,2031,1
240,2044,2052,2022,1
240,2042,2042,2022,1
240,2038,2042,2027,1
240,2042,2040,2028,1
240,2039,2043,2032,1
240,2046,2050,2029,1
240,2043,2043,2044,1
240,2040,2043,2033,1
240,2040,2059,2031,1
240,2037,2054,2031,1
240,2032,2054,2032,1
240,2041,2059,2026,1
240,2039,2050,2043,1
240,2034,2064,2038,1
240,2040,2077,2042,1
240,2042,2072,2042,1
240,2037,2072,2044,1
240,2045,2075,2033,1
240,2042,2060,2046,1
240,2033,2074,2040,1
240,2041,2067,2033,1
240,2048,2067,2044,1
240,2048,2079,2060,1
240,2050,2086,2060,1
240,2050,2086,2065,1
240,2050,2092,2062,1
240,2054,2083,2061,1
240,2046,2090,2069,1
240,2054,2087,2081,1
240,2056,2098,2081,1
240,2059,2098,2080,1
240,2059,2094,2080,1
240,2063,2089,2070,1
240,2053,2088,2080,1
240,2054,2093,2068,1
240,2050,2093,2071,1
240,2050,2075,2069,1
240,2051,2081,2069,1
240,2057,2081,2059,1
240,2048,2071,2073,1
240,2052,2081,2051,1
240,2056,2064,2058,1
240,2048,2054,2049,1
240,2047,2058,2049,1
240,2054,2058,2048,1
240,2048,2051,2064,1
240,2050,2066,2049,1
240,2059,2053,2053,1
240,2050,2060,2070,1
240,2046,2060,2051,1
240,2046,2049,2032,1
240,2042,2037,2032,1
240,2039,2037,2029,1
240,2041,2033,2029,1
240,2036,2037,2029,1
240,2046,2037,2022,1
240,2042,2043,2016,1
240,2040,2033,2016,1
240,2034,2033,2018,1
240,2038,2031,2013,1
240,2032,2030,2020,1
240,2038,2037,2015,1
240,2038,2031,2032,1
240,2038,2031,2026,1
240,2038,2055,2032,1
240,2038,2052,2032,1
240,2032,2052,2037,1
240,2042,2057,2027,1
240,2039,2046,2045,1
240,2032,2064,2041,1
240,2040,2058,2044,1
240,2046,2061,2044,1
240,2042,2061,2057,1
240,2042,2064,2046,1
240,2042,2052,2060,1
240,2032,2069,2056,1
240,2040,2063,2040,1
240,2043,2063,2049,1
240,2043,2072,2065,1
240,2048,2083,2065,1
240,2052,2083,2070,1
240,2049,2091,2073,1
240,2055,2084,2067,1
240,2046,2085,2074,1
240,2049,2087,2061,1
240,2048,2092,2067,1
240,2053,2092,2065,1
240,2053,2088,2076,1
240,2059,2089,2064,1
240,2056,2084,2075,1
240,2055,2090,2068,1
240,2056,2084,2069,1
240,2056,2084,2061,1
240,2051,2080,2061,1
240,2057,2080,2055,1
240,2051,2069,2067,1
240,2054,2076,2052,1
240,2062,2061,2055,1
240,2054,2066,2069,1
240,2050,2060,2055,1
240,2051,2060,2047,1
240,2051,2055,2051,1
240,2047,2063,2035,1
240,2056,2050,2036,1
240,2050,2054,2057,1
240,2056,2064,2048,1
240,2056,2058,2047,1
240,2050,2047,2047,1
240,2045,2047,2040,1
240,2047,2041,2034,1
240,2040,2040,2038,1
240,2046,2044,2035,1
240,2045,2041,2048,1
240,2046,2036,2045,1
240,2042,2036,2044,1
240,2042,2039,2037,1
240,2037,2036,2046,1
240,2037,2045,2038,1
240,2037,2040,2039,1
240,2036,2045,2036,1
240,2036,2045,2044,1
240,2043,2051,2044,1
240,2042,2051,2058,1
240,2042,2059,2051,1
240,2043,2051,2061,1
240,2037,2064,2058,1
240,2043,2059,2047,1
240,2039,2060,2054,1
240,2042,2060,2061,1
240,2042,2067,2059,1
240,2040,2060,2059,1
240,2037,2070,2062,1
240,2043,2068,2053,1
240,2041,2058,2061,1
240,2041,2067,2058,1
240,2043,2076,2058,1
240,2049,2076,2062,1
240,2049,2077,2069,1
240,2053,2077,2060,1
240,2051,2074,2068,1
240,2050,2078,2065,1
240,2051,2068,2064,1
240,2051,2072,2057,1
240,2051,2068,2062,1
240,2049,2073,2062,1
240,2052,2068,2065,1
240,2050,2073,2068,1
240,2054,2070,2064,1
240,2054,2071,2062,1
240,2051,2064,2062,1
240,2050,2064,2052,1
240,2050,2058,2051,1
240,2047,2060,2045,1
240,2053,2057,2043,1
240,2051,2056,2054,1
240,2055,2061,2051,1
240,2053,2058,2054,1
240,2053,2057,2050,1
240,2051,2054,2050,1
240,2051,2052,2045,1
240,2047,2047,2045,1
240,2046,2051,2038,1
240,2050,2048,2041,1
240,2050,2053,2041,1
240,2049,2053,2048,1
240,2049,2052,2047,1
240,2046,2049,2053,1
240,2043,2052,2051,1
240,2042,2050,2046,1
240,2040,2047,2046,1
240,2040,2049,2047,1
240,2040,2051,2045,1
240,2039,2051,2045,1
240,2039,2056,2048,1
240,2041,2055,2044,1
240,2039,2049,2046,1
240,2038,2051,2045,1
240,2039,2055,2045,1
240,2042,2055,2054,1
240,2042,2061,2058,1
240,2047,2061,2061,1
240,2048,2063,2066,1
240,2049,2061,2063,1
240,2048,2057,2065,1
240,2048,2061,2061,1
240,2048,2059,2058,1
240,2046,2058,2058,1
240,2047,2056,2061,1
240,2047,2058,2061,1
240,2049,2058,2062,1
240,2048,2061,2063,1
240,2048,2057,2063,1
240,2048,2057,2052,1
240,2048,2049,2053,1
240,2047,2052,2053,1
240,2050,2047,2052,1
240,2046,2050,2059,1
240,2047,2052,2055,1
240,2049,2050,2061,1
240,2049,2047,2059,1
240,2045,2048,2059,1
240,2046,2048,2051,1
240,2042,2044,2054,1
240,2044,2049,2045,1
240,2049,2045,2049,1
240,2046,2042,2049,1
240,2043,2042,2050,1
240,2043,2045,2044,1
240,2043,2040,2044,1
240,2043,2045,2040,1
240,2043,2039,2040,1
240,2040,2041,2039,1
240,2046,2043,2037,1
240,2045,2048,2037,1
240,2049,2044,2037,1
240,2048,2044,2048,1
240,2049,2042,2045,1
240,2045,2039,2048,1
240,2046,2042,2040,1
240,2045,2036,2043,1
240,2046,2036,2040,1
240,2046,2046,2046,1
240,2043,2046,2046,1
240,2042,2046,2048,1
240,2045,2052,2043,1
240,2043,2044,2050,1
240,2037,2051,2047,1
240,2038,2053,2048,1
240,2038,2055,2048,1
240,2039,2055,2051,1
240,2043,2059,2048,1
240,2044,2052,2058,1
240,2039,2059,2058,1
240,2040,2056,2046,1
240,2040,2056,2050,1
240,2040,2055,2056,1
240,2041,2060,2056,1
240,2044,2060,2060,1
240,2044,2063,2065,1
240,2048,2064,2065,1
240,2048,2064,2070,1
240,2049,2065,2063,1
240,2045,2066,2063,1
240,2046,2066,2057,1
240,2046,2061,2060,1
240,2051,2064,2055,1
240,2053,2061,2065,1
240,2053,2067,2065,1
240,2051,2067,2072,1
240,2051,2053,2067,1
240,2047,2051,2067,1
240,2048,2051,2057,1
240,2041,2043,2060,1
240,2041,2050,2045,1
240,2047,2040,2048,1
240,2042,2041,2049,1
240,2043,2041,2049,1
240,2044,2041,2052,1
240,2044,2038,2055,1
240,2042,2044,2043,1
240,2048,2034,2043,1
240,2042,2036,2054,1
240,2044,2036,2046,1
240,2044,2039,2042,1
240,2046,2033,2042,1
240,2045,2033,2047,1
240,2045,2029,2042,1
240,2040,2029,2042,1
240,2044,2030,2033,1
240,2041,2024,2031,1
240,2040,2021,2031,1
240,2039,2021,2036,1
240,2039,2024,2033,1
240,2037,2024,2042,1
240,2039,2032,2034,1
240,2037,2024,2037,1
240,2034,2029,2031,1
240,2034,2024,2030,1
240,2036,2031,2030,1
240,2036,2031,2041,1
240,2042,2042,2037,1
240,2043,2036,2055,1
240,2038,2051,2052,1
240,2041,2045,2040,1
240,2040,2047,2045,1
240,2037,2047,2046,1
240,2037,2048,2040,1
240,2040,2042,2054,1
240,2038,2057,2054,1
240,2044,2054,2042,1
240,2040,2042,2053,1
240,2040,2049,2056,1
240,2041,2058,2056,1
240,2043,2058,2056,1
240,2043,2059,2054,1
240,2047,2058,2052,1
240,2045,2061,2064,1
240,2049,2068,2054,1
240,2048,2075,2066,1
240,2050,2075,2066,1
240,2050,2070,2068,1
240,2052,2069,2059,1
240,2048,2062,2068,1
240,2048,2069,2061,1
240,2051,2061,2067,1
240,2051,2070,2068,1
240,2048,2066,2068,1
240,2051,2066,2060,1
240,2051,2055,2068,1
240,2050,2063,2049,1
240,2053,2044,2052,1
240,2045,2050,2061,1
240,2044,2047,2051,1
240,2048,2047,2053,1
240,2048,2043,2062,1
240,2047,2054,2048,1
240,2052,2039,2047,1
240,2043,2040,2061,1
240,2047,2051,2045,1
240,2047,2042,2043,1
240,2045,2031,2043,1
240,2042,2031,2042,1
240,2042,2028,2036,1
240,2037,2027,2039,1
240,2044,2027,2030,1
240,2039,2018,2041,1
240,2037,2029,2030,1
240,2034,2018,2028,1
240,2034,2018,2022,1
240,2042,2014,2022,1
240,2044,2022,2020,1
240,2043,2017,2032,1
240,2040,2026,2032,1
240,2050,2020,2026,1
240,2042,2020,2026,1
240,2038,2020,2034,1
240,2038,2027,2025,1
240,2037,2021,2025,1
240,2033,2041,2028,1
240,2039,2036,2018,1
240,2034,2026,2030,1
240,2033,2032,2044,1
240,2033,2039,2036,1
240,2032,2031,2036,1
240,2028,2050,2040,1
240,2037,2050,2031,1
240,2036,2038,2049,1
240,2031,2049,2040,1
240,2034,2056,2040,1
240,2039,2056,2057,1
240,2039,2064,2061,1
240,2039,2062,2061,1
240,2036,2064,2071,1
240,2041,2069,2057,1
240,2043,2057,2067,1
240,2042,2069,2065,1
240,2042,2067,2072,1
240,2044,2071,2072,1
240,2043,2071,2069,1
240,2043,2077,2061,1
240,2046,2066,2065,1
240,2038,2073,2068,1
240,2044,2070,2068,1
240,2049,2070,2060,1
240,2049,2059,2070,1
240,2051,2069,2070,1
240,2055,2050,2068,1
240,2046,2053,2075,1
240,2050,2059,2059,1
240,2050,2051,2068,1
240,2046,2042,2067,1
240,2046,2052,2067,1
240,2050,2052,2063,1
240,2042,2049,2074,1
240,2048,2060,2057,1
240,2052,2047,2064,1
240,2046,2056,2059,1
240,2045,2056,2059,1
240,2045,2039,2046,1
240,2047,2034,2046,1
240,2050,2034,2036,1
240,2046,2023,2043,1
240,2044,2034,2037,1
240,2054,2025,2035,1
240,2045,2024,2027,1
240,2043,2018,2027,1
240,2041,2018,2029,1
240,2040,2012,2031,1
240,2037,2021,2031,1
240,2046,2019,2025,1
240,2042,2018,2042,1
240,2040,2018,2035,1
240,2040,2030,2031,1
240,2038,2023,2031,1
240,2033,2023,2029,1
240,2038,2025,2022,1
240,2035,2022,2037,1
240,2037,2033,2032,1
240,2039,2044,2037,1
240,2041,2038,2037,1
240,2037,2038,2042,1
240,2042,2041,2033,1
240,2038,2030,2047,1
240,2033,2041,2038,1
240,2037,2034,2032,1
240,2040,2034,2038,1
240,2040,2045,2051,1
240,2044,2053,2051,1
240,2044,2053,2057,1
240,2045,2060,2053,1
240,2047,2052,2057,1
240,2040,2057,2059,1
240,2043,2057,2058,1
240,2045,2064,2058,1
240,2048,2064,2063,1
240,2048,2064,2066,1
240,2052,2060,2066,1
240,2046,2062,2070,1
240,2046,2064,2056,1
240,2042,2064,2059,1
240,2042,2053,2058,1
240,2045,2057,2058,1
240,2049,2057,2057,1
240,2045,2054,2064,1
240,2048,2060,2055,1
240,2049,2051,2058,1
240,2044,2053,2058,1
240,2040,2051,2052,1
240,2042,2051,2044,1
240,2042,2048,2051,1
240,2043,2055,2043,1
240,2049,2048,2049,1
240,2045,2051,2059,1
240,2048,2054,2055,1
240,2048,2051,2047,1
240,2043,2042,2047,1
240,2040,2042,2040,1
240,2040,2036,2038,1
240,2039,2037,2037,1
240,2044,2035,2036,1
240,2043,2035,2045,1
240,2045,2037,2044,1
240,2042,2037,2042,1
240,2042,2034,2036,1
240,2041,2032,2036,1
240,2041,2031,2032,1
240,2040,2030,2038,1
240,2041,2036,2041,1
240,2041,2036,2048,1
240,2044,2038,2048,1
240,2041,2038,2050,1
240,2041,2038,2045,1
240,2040,2036,2051,1
240,2038,2042,2048,1
240,2041,2042,2045,1
240,2041,2040,2049,1
240,2043,2042,2057,1
240,2043,2046,2056,1
240,2042,2044,2056,1
240,2040,2049,2053,1
240,2042,2046,2047,1
240,2041,2042,2049,1
240,2040,2042,2047,1
240,2043,2050,2047,1
240,2047,2050,2057,1
240,2047,2055,2060,1
240,2049,2053,2060,1
240,2047,2052,2061,1
240,2045,2052,2057,1
240,2044,2049,2056,1
240,2045,2052,2045,1
240,2045,2051,2051,1
240,2046,2053,2051,1
240,2046,2048,2053,1
240,2043,2052,2054,1
240,2044,2050,2053,1
240,2043,2050,2053,1
240,2043,2046,2053,1
240,2041,2046,2047,1
240,2041,2041,2048,1
240,2043,2045,2048,1
240,2045,2045,2050,1
240,2042,2043,2054,1
240,2043,2045,2048,1
240,2041,2040,2045,1
240,2041,2039,2043,1
240,2041,2042,2043,1
240,2044,2042,2043,1
240,2044,2040,2050,1
240,2046,2043,2049,1
240,2049,2037,2048,1
240,2045,2040,2046,1
240,2042,2040,2046,1
240,2042,2040,2039,1
240,2042,2035,2039,1
240,2040,2040,2039,1
240,2042,2039,2039,1
240,2042,2040,2046,1
240,2045,2046,2042,1
240,2044,2046,2042,1
240,2043,2041,2042,1
240,2039,2041,2042,1
240,2040,2042,2037,1
240,2038,2038,2042,1
240,2039,2043,2039,1
240,2041,2038,2042,1
240,2039,2038,2046,1
240,2039,2045,2050,1
240,2041,2048,2050,1
240,2039,2048,2047,1
240,2040,2050,2043,1
240,2041,2044,2047,1
240,2037,2048,2047,1
240,2040,2048,2049,1
240,2043,2051,2049,1
240,2043,2051,2048,1
240,2043,2050,2049,1
240,2045,2048,2054,1
240,2042,2051,2055,1
240,2045,2053,2046,1
240,2045,2053,2051,1
240,2045,2051,2056,1
240,2048,2054,2056,1
240,2051,2054,2061,1
240,2048,2056,2064,1
240,2051,2057,2060,1
240,2050,2054,2062,1
240,2048,2055,2058,1
240,2045,2055,2058,1
240,2048,2055,2055,1
240,2048,2055,2060,1
240,2050,2055,2053,1
240,2051,2048,2058,1
240,2048,2054,2059,1
240,2049,2052,2058,1
240,2049,2053,2053,1
240,2043,2047,2053,1
240,2043,2047,2044,1
240,2039,2039,2049,1
240,2039,2045,2041,1
240,2047,2039,2045,1
240,2042,2041,2054,1
240,2040,2037,2048,1
240,2039,2037,2043,1
240,2039,2034,2044,1
240,2038,2038,2038,1
240,2044,2031,2035,1
240,2040,2032,2049,1
240,2043,2041,2043,1
240,2043,2035,2045,1
240,2044,2030,2045,1
240,2040,2030,2043,1
240,2040,2030,2037,1
240,2037,2027,2043,1
240,2039,2032,2034,1
240,2039,2025,2038,1
240,2041,2023,2036,1
240,2038,2023,2042,1
240,2038,2030,2036,1
240,2038,2025,2036,1
240,2036,2035,2031,1
240,2037,2028,2031,1
240,2035,2031,2033,1
240,2035,2032,2040,1
240,2041,2040,2040,1
240,2040,2040,2050,1
240,2040,2046,2047,1
240,2043,2040,2061,1
240,2037,2052,2058,1
240,2041,2049,2043,1
240,2037,2038,2049,1
240,2040,2045,2054,1
240,2040,2052,2053,1
240,2042,2047,2053,1
240,2039,2057,2058,1
240,2045,2058,2046,1
240,2042,2045,2057,1
240,2035,2054,2049,1
240,2039,2058,2049,1
240,2046,2058,2057,1
240,2046,2064,2067,1
240,2051,2070,2067,1
240,2051,2065,2076,1
240,2051,2071,2070,1
240,2054,2062,2074,1
240,2055,2068,2066,1
240,2055,2063,2072,1
240,2049,2067,2072,1
240,2049,2053,2074,1
240,2046,2061,2072,1
240,2054,2060,2071,1
240,2050,2065,2078,1
240,2052,2059,2078,1
240,2051,2059,2060,1
240,2051,2045,2061,1
240,2045,2051,2043,1
240,2051,2035,2040,1
240,2043,2037,2057,1
240,2050,2049,2046,1
240,2049,2038,2047,1
240,2049,2036,2050,1
240,2047,2041,2050,1
240,2052,2031,2039,1
240,2043,2027,2054,1
240,2046,2043,2037,1
240,2055,2030,2046,1
240,2048,2030,2046,1
240,2043,2030,2042,1
240,2043,2029,2034,1
240,2046,2021,2034,1
240,2044,2026,2024,1
240,2041,2019,2028,1
240,2035,2026,2023,1
240,2032,2019,2027,1
240,2032,2023,2022,1
240,2037,2014,2022,1
240,2037,2027,2022,1
240,2039,2022,2023,1
240,2033,2023,2027,1
240,2041,2021,2018,1
240,2036,2024,2018,1
240,2035,2024,2037,1
240,2035,2039,2036,1
240,2037,2035,2036,1
240,2034,2057,2045,1
240,2043,2054,2033,1
240,2037,2038,2049,1
240,2033,2045,2037,1
240,2033,2051,2036,1
240,2033,2044,2036,1
240,2031,2044,2039,1
240,2041,2050,2034,1
240,2041,2039,2058,1
240,2035,2055,2053,1
240,2040,2046,2043,1
240,2040,2046,2043,1
240,2040,2055,2056,1
240,2043,2059,2056,1
240,2044,2053,2069,1
240,2047,2066,2064,1
240,2053,2058,2073,1
240,2045,2068,2076,1
240,2051,2064,2084,1
240,2048,2071,2084,1
240,2049,2071,2073,1
240,2045,2076,2070,1
240,2051,2069,2064,1
240,2047,2069,2075,1
240,2052,2074,2068,1
240,2049,2074,2068,1
240,2049,2054,2069,1
240,2048,2059,2069,1
240,2054,2038,2056,1
240,2043,2036,2068,1
240,2048,2049,2047,1
240,2054,2034,2056,1
240,2048,2032,2056,1
240,2047,2039,2056,1
240,2052,2039,2052,1
240,2041,2030,2062,1
240,2042,2044,2041,1
240,2049,2026,2043,1
240,2041,2035,2052,1
240,2041,2035,2040,1
240,2041,2024,2030,1
240,2044,2015,2030,1
240,2044,2022,2023,1
240,2043,2014,2026,1
240,2036,2019,2026,1
240,2045,2012,2017,1
240,2038,2013,2010,1
240,2036,2004,2010,1
240,2034,2004,2018,1
240,2034,2011,2019,1
240,2031,2012,2030,1
240,2038,2013,2021,1
240,2035,2006,2030,1
240,2033,2006,2022,1
240,2033,2022,2023,1
240,2032,2017,2023,1
240,2029,2017,2028,1
240,2038,2024,2022,1
240,2035,2013,2045,1
240,2031,2026,2036,1
240,2036,2019,2026,1
240,2036,2019,2032,1
240,2032,2019,2036,1
240,2032,2022,2025,1
240,2033,2015,2040,1
240,2029,2031,2038,1
240,2037,2030,2026,1
240,2034,2023,2040,1
240,2034,2029,2048,1
240,2040,2040,2048,1
240,2042,2040,2050,1
240,2042,2042,2049,1
240,2046,2039,2049,1
240,2040,2044,2057,1
240,2045,2049,2045,1
240,2045,2055,2058,1
240,2048,2055,2060,1
240,2048,2050,2061,1
240,2043,2048,2061,1
240,2040,2044,2064,1
240,2042,2050,2052,1
240,2045,2041,2056,1
240,2045,2046,2055,1
240,2046,2046,2055,1
240,2050,2046,2051,1
240,2050,2043,2057,1
240,2049,2048,2044,1
240,2051,2033,2045,1
240,2045,2037,2049,1
240,2049,2042,2041,1
240,2050,2037,2039,1
240,2050,2035,2047,1
240,2050,2041,2047,1
240,2053,2029,2044,1
240,2046,2031,2050,1
240,2049,2038,2040,1
240,2049,2029,2043,1
240,2046,2019,2043,1
240,2042,2019,2030,1
240,2042,2015,2027,1
240,2044,2017,2027,1
240,2047,2013,2024,1
240,2043,2011,2028,1
240,2040,2019,2024,1
240,2036,2010,2020,1
240,2036,2006,2016,1
240,2038,2006,2016,1
240,2039,2007,2015,1
240,2039,2006,2015,1
240,2036,2012,2015,1
240,2041,2006,2014,1
240,2037,2004,2014,1
240,2034,2004,2023,1
240,2034,2007,2018,1
240,2029,2003,2018,1
240,2028,2009,2018,1
240,2034,2008,2016,1
240,2031,2008,2026,1
240,2031,2006,2022,1
240,2032,2010,2022,1
240,2034,2007,2022,1
240,2031,2007,2021,1
240,2036,2005,2016,1
240,2035,2006,2026,1
240,2035,2008,2025,1
240,2038,2006,2017,1
240,2039,2006,2022,1
240,2039,2010,2028,1
240,2039,2010,2028,1
240,2038,2010,2030,1
240,2040,2014,2025,1
240,2042,2014,2029,1
240,2039,2014,2029,1
240,2043,2012,2037,1
240,2046,2013,2037,1
240,2045,2013,2037,1
240,2043,2014,2032,1
240,2044,2011,2032,1
240,2039,2005,2030,1
240,2041,2004,2021,1
240,2043,2004,2027,1
240,2043,2000,2030,1
240,2044,2003,2030,1
240,2045,2003,2024,1
240,2042,1998,2023,1
240,2041,2001,2017,1
240,2038,1987,2014,1
240,2037,1989,2001,1
240,2035,1981,2001,1
240,2035,1981,1989,1
240,2035,1970,1983,1
240,2032,1970,1975,1
240,2022,1951,1959,1
240,2024,1946,1943,1
240,2016,1955,1925,1
240,2016,1930,1899,1
240,2009,1915,1899,1
240,2004,1915,1885,1
240,2014,1905,1878,1
240,2003,1903,1880,1
240,1992,1881,1865,1
240,2003,1872,1851,1
240,2001,1851,1847,1
240,1995,1851,1830,1
240,1995,1832,1815,1
240,1983,1826,1815,1
240,1976,1799,1807,1
240,1993,1803,1797,1
240,1985,1829,1805,1
240,1985,1794,1795,1
240,1984,1783,1795,1
240,1979,1783,1776,1
240,1979,1781,1767,1
240,1972,1787,1777,1
240,1955,1758,1769,1
240,1978,1765,1747,1
240,1986,1753,1759,1
240,1982,1753,1753,1
240,1982,1742,1744,1
240,1961,1743,1744,1
240,1948,1711,1738,1
240,1970,1732,1721,1
240,1965,1756,1737,1
240,1959,1719,1732,1
240,1959,1700,1732,1
240,1965,1700,1740,1
240,1965,1700,1735,1
240,1966,1707,1741,1
240,1950,1665,1725,1
240,1970,1686,1705,1
240,1962,1733,1718,1
240,1968,1691,1714,1
240,1968,1674,1710,1
240,1958,1678,1710,1
240,1946,1635,1700,1
240,1966,1649,1681,1
240,1951,1687,1683,1
240,1910,1646,1673,1
240,1940,1629,1673,1
240,1947,1629,1662,1
240,1947,1635,1664,1
240,1941,1651,1664,1
240,1935,1609,1661,1
240,1956,1628,1656,1
240,1951,1680,1664,1
240,1957,1632,1670,1
240,1957,1616,1674,1
240,1959,1625,1674,1
240,1959,1625,1679,1
240,1976,1633,1685,1
240,1961,1676,1701,1
240,1942,1631,1700,1
240,1961,1624,1700,1
240,1962,1624,1712,1
240,1962,1642,1705,1
240,1959,1654,1705,1
240,1955,1637,1708,1
240,1975,1660,1710,1
240,1970,1708,1735,1
240,1950,1683,1731,1
240,1966,1691,1734,1
240,1968,1696,1734,1
240,1963,1696,1744,1
240,1981,1717,1745,1
240,1973,1747,1769,1
240,1963,1730,1770,1
240,1979,1747,1782,1
240,1985,1747,1782,1
240,1985,1769,1790,1
240,1980,1777,1790,1
240,1972,1772,1803,1
240,1990,1795,1796,1
240,1982,1815,1820,1
240,1967,1809,1822,1
240,1985,1820,1835,1
240,1991,1826,1835,1
240,1987,1826,1847,1
240,2002,1843,1843,1
240,1997,1852,1864,1
240,1984,1851,1864,1
240,2000,1861,1852,1
240,2006,1861,1872,1
240,2006,1875,1889,1
240,2005,1888,1889,1
240,2002,1888,1897,1
240,2010,1900,1896,1
240,2006,1910,1903,1
240,1990,1902,1909,1
240,2004,1914,1914,1
240,2009,1924,1914,1
240,2010,1924,1922,1
240,2010,1933,1928,1
240,2014,1939,1928,1
240,2004,1928,1936,1
240,2013,1938,1924,1
240,2009,1949,1934,1
240,2009,1949,1938,1
240,2016,1952,1938,1
240,2022,1952,1943,1
240,2023,1946,1955,1
240,2023,1963,1943,1
240,2020,1942,1950,1
240,2021,1955,1955,1
240,2022,1954,1951,1
240,2025,1954,1950,1
240,2025,1958,1962,1
240,2023,1975,1950,1
240,2025,1956,1957,1
240,2023,1967,1971,1
240,2026,1986,1962,1
240,2026,1974,1959,1
240,2020,1962,1959,1
240,2016,1962,1954,1
240,2016,1961,1953,1
240,2009,1968,1953,1
240,2018,1962,1950,1
240,2018,1961,1971,1
240,2021,1957,1966,1
240,2019,1957,1970,1
240,2019,1967,1965,1
240,2022,1967,1965,1
240,2022,1981,1965,2
240,2022,1984,1965,2
240,2022,1986,1965,2
240,2022,1985,1965,2
240,2022,1988,1965,2
240,2022,1987,1965,2
240,2022,1984,1965,2
240,2022,1986,1965,2
240,2022,1988,1965,2
240,2022,2006,1980,2
240,2031,2009,1997,2
240,2024,2018,2014,2
240,2033,2027,2005,2
240,2032,2019,2026,2
240,2032,2030,2031,2
240,2034,2036,2031,2
240,1761,2036,1998,2
240,1761,1802,1975,2
240,1431,1660,1921,2
240,1255,1721,1922,2
240,926,1632,1917,2
240,856,1367,1896,2
240,729,1511,1882,2
240,729,1503,1894,2
240,642,1477,1894,2
240,660,1592,1898,2
240,493,1522,1910,2
240,521,1357,1895,2
240,724,1507,1918,2
240,559,1541,1918,2
240,538,1541,1912,2
240,538,1484,1916,2
240,598,1433,1916,2
240,660,1562,1910,2
240,497,1468,1932,2
240,547,1296,1915,2
240,509,1448,1924,2
240,509,1485,1925,2
240,530,1466,1925,2
240,581,1466,1939,2
240,438,1431,1953,2
240,577,1323,1940,2
240,756,1476,1946,2
240,580,1536,1946,2
240,547,1536,1959,2
240,547,1504,1953,2
240,585,1454,1953,2
240,638,1605,1956,2
240,480,1520,1957,2
240,520,1347,1964,2
240,746,1501,1961,2
240,577,1545,1963,2
240,543,1522,1963,2
240,570,1522,1978,2
240,427,1505,1977,2
240,690,1560,1995,2
240,1159,1695,2033,2
240,1503,1828,2068,2
240,2033,1828,2127,2
240,2033,2023,2168,2
240,2303,2087,2168,2
240,2369,2100,2208,2
240,2454,2163,2205,2
240,2473,2210,2251,2
240,2452,2193,2245,2
240,2498,2198,2255,2
240,2512,2204,2255,2
240,2505,2204,2245,2
240,2529,2228,2233,2
240,2516,2243,2261,2
240,2479,2214,2257,2
240,2500,2197,2257,2
240,2499,2197,2257,2
240,2499,2194,2261,2
240,2474,2208,2261,2
240,2462,2162,2251,2
240,2469,2196,2244,2
240,2462,2234,2250,2
240,2459,2198,2250,2
240,2459,2181,2255,2
240,2437,2188,2255,2
240,2426,2188,2231,2
240,2426,2187,2227,2
240,2414,2211,2225,2
240,2389,2167,2222,2
240,2395,2148,2222,2
240,2388,2148,2211,2
240,2388,2146,2205,2
240,2379,2153,2218,2
240,2368,2125,2197,2
240,2369,2132,2187,2
240,2356,2172,2188,2
240,2349,2133,2181,2
240,2349,2125,2176,2
240,2338,2127,2176,2
240,2329,2109,2168,2
240,2333,2115,2164,2
240,2324,2144,2176,2
240,2324,2112,2177,2
240,2316,2107,2177,2
240,2306,2107,2175,2
240,2306,2115,2164,2
240,2300,2117,2185,2
240,2287,2108,2177,2
240,2294,2109,2157,2
240,2282,2133,2176,2
240,2275,2113,2173,2
240,2275,2111,2162,2
240,2260,2107,2162,2
240,2251,2098,2160,2
240,2261,2107,2144,2
240,2255,2125,2163,2
240,2255,2113,2167,2
240,2253,2115,2167,2
240,2249,2115,2155,2
240,2249,2115,2151,2
240,2245,2120,2149,2
240,2231,2099,2141,2
240,2235,2108,2124,2
240,2232,2107,2134,2
240,2232,2107,2136,2
240,2232,2107,2139,2
240,2227,2113,2136,2
240,2215,2091,2130,2
240,2215,2096,2116,2
240,2209,2100,2117,2
240,2209,2100,2113,2
240,2203,2094,2113,2
240,2198,2094,2108,2
240,2197,2086,2103,2
240,2189,2095,2102,2
240,2180,2077,2094,2
240,2182,2068,2088,2
240,2177,2065,2088,2
240,2174,2065,2084,2
240,2179,2067,2082,2
240,2174,2078,2087,2
240,2168,2069,2081,2
240,2171,2072,2079,2
240,2165,2072,2079,2
240,2165,2069,2075,2
240,2155,2069,2075,2
240,2147,2064,2072,2
240,2155,2068,2066,2
240,2152,2078,2072,2
240,2144,2070,2069,2
240,2144,2071,2071,2
240,2142,2071,2071,2
240,2137,2071,2064,2
240,2143,2074,2059,2
240,2134,2078,2065,2
240,2121,2067,2062,2
240,2130,2067,2062,2
240,2132,2067,2064,2
240,2132,2061,2064,2
240,2132,2064,2058,2
240,2125,2052,2059,2
240,2128,2063,2055,2
240,2124,2073,2054,2
240,2124,2061,2046,2
240,2124,2055,2051,2
240,2120,2060,2051,2
240,2118,2046,2051,2
240,2121,2049,2051,2
240,2118,2059,2048,2
240,2118,2046,2040,2
240,2116,2038,2040,2
240,2114,2038,2037,2
240,2114,2042,2036,2
240,2111,2046,2040,2
240,2109,2039,2035,2
240,2113,2037,2036,2
240,2107,2036,2033,2
240,2103,2036,2031,2
240,2103,2031,2023,2
240,2096,2029,2023,2
240,2093,2023,2016,2
240,2100,2023,2017,2
240,2097,2038,2021,2
240,2097,2024,2027,2
240,2098,2026,2027,2
240,2094,2026,2025,2
240,2099,2030,2019,2
240,2095,2027,2026,2
240,2080,2020,2021,2
240,2088,2022,2007,2
240,2089,2022,2016,2
240,2087,2022,2011,2
240,2087,2019,2012,2
240,2087,2017,2022,2
240,2078,2010,2020,2
240,2086,2012,2006,2
240,2082,2011,2016,2
240,2082,2011,2019,2
240,2085,2013,2019,2
240,2087,2013,2024,2
240,2088,2013,2024,2
240,2087,2019,2023,2
240,2079,2003,2023,2
240,2084,2009,2017,2
240,2084,2006,2017,2
240,2084,2006,2010,2
240,2084,2004,2013,2
240,2083,2010,2010,2
240,2080,1991,2011,2
240,2083,1999,2006,2
240,2080,1999,2012,2
240,2080,1980,2005,2
240,2075,1977,2005,2
240,2072,1977,1994,2
240,2074,1977,1997,2
240,2069,1993,1995,2
240,2070,1972,1995,2
240,2072,1967,1993,2
240,2072,1963,1993,2
240,2070,1963,1989,2
240,2073,1957,1988,2
240,2065,1969,1989,2
240,2064,1951,1984,2
240,2066,1948,1984,2
240,2066,1948,1992,2
240,2066,1956,1987,2
240,2065,1953,1987,2
240,2058,1954,1987,2
240,2067,1957,1974,2
240,2062,1964,1988,2
240,2063,1955,1990,2
240,2063,1955,1987,2
240,2063,1953,1987,2
240,2057,1953,1977,2
240,2067,1958,1968,2
240,2060,1960,1988,2
240,2048,1955,1980,2
240,2056,1953,1980,2
240,2058,1953,1987,2
240,2058,1958,1989,2
240,2061,1964,1993,2
240,2053,1954,1998,2
240,2057,1965,1985,2
240,2054,1972,2001,2
240,2053,1966,1998,2
240,2053,1958,1998,2
240,2042,1961,1998,2
240,2039,1943,2002,2
240,2040,1957,1991,2
240,2041,1961,2001,2
240,2041,1954,1997,2
240,2033,1945,1997,2
240,2032,1945,1987,2
240,2032,1936,1989,2
240,2026,1944,1978,2
240,2024,1917,1970,2
240,2017,1923,1970,2
240,2019,1926,1969,2
240,2017,1926,1968,2
240,2017,1918,1974,2
240,2010,1925,1974,2
240,2010,1902,1966,2
240,2001,1907,1968,2
240,2001,1927,1962,2
240,2001,1907,1960,2
240,1993,1895,1960,2
240,1986,1895,1958,2
240,1985,1889,1951,2
240,1979,1889,1964,2
240,1979,1882,1949,2
240,1972,1876,1942,2
240,1962,1867,1944,2
240,1955,1867,1938,2
240,1955,1868,1931,2
240,1951,1864,1950,2
240,1951,1863,1937,2
240,1947,1859,1932,2
240,1943,1860,1943,2
240,1943,1860,1944,2
240,1939,1863,1944,2
240,1934,1863,1946,2
240,1935,1872,1937,2
240,1937,1869,1966,2
240,1937,1880,1964,2
240,1936,1877,1957,2
240,1932,1876,1957,2
240,1927,1876,1961,2
240,1927,1873,1949,2
240,1929,1865,1969,2
240,1924,1872,1962,2
240,1922,1870,1932,2
240,1917,1870,1958,2
240,1917,1865,1973,2
240,1914,1873,1973,2
240,1916,1850,1973,2
240,1900,1856,1964,2
240,1912,1859,1963,2
240,1919,1852,1968,2
240,1909,1846,1976,2
240,1903,1857,1976,2
240,1908,1857,1968,2
240,1890,1854,1969,2
240,1896,1857,1962,2
240,1903,1840,1965,2
240,1888,1848,1949,2
240,1880,1848,1949,2
240,1880,1821,1939,2
240,1883,1817,1939,2
240,1892,1807,1929,2
240,1877,1798,1932,2
240,1877,1813,1933,2
240,1880,1795,1924,2
240,1880,1787,1914,2
240,1876,1782,1914,2
240,1880,1782,1909,2
240,1868,1777,1912,2
240,1872,1792,1922,2
240,1896,1780,1913,2
240,1877,1777,1913,2
240,1868,1777,1919,2
240,1868,1778,1907,2
240,1867,1770,1907,2
240,1866,1782,1902,2
240,1862,1781,1883,2
240,1861,1781,1910,2
240,1859,1780,1929,2
240,1859,1783,1920,2
240,1860,1773,1920,2
240,1857,1784,1912,2
240,1853,1782,1886,2
240,1852,1774,1913,2
240,1852,1774,1927,2
240,1856,1785,1927,2
240,1860,1785,1934,2
240,1860,1788,1930,2
240,1869,1785,1942,2
240,1868,1779,1938,2
240,1859,1782,1901,2
240,1862,1776,1924,2
240,1864,1776,1920,2
240,1864,1770,1924,2
240,1867,1769,1924,2
240,1868,1750,1926,2
240,1858,1759,1898,2
240,1863,1757,1920,2
240,1863,1750,1914,2
240,1854,1739,1914,2
240,1857,1739,1896,2
240,1857,1725,1898,2
240,1858,1736,1900,2
240,1873,1705,1885,2
240,1855,1711,1870,2
240,1847,1695,1885,2
240,1848,1695,1880,2
240,1848,1681,1881,2
240,1855,1689,1881,2
240,1866,1656,1861,2
240,1847,1667,1851,2
240,1856,1693,1867,2
240,1856,1659,1872,2
240,1847,1638,1872,2
240,1842,1638,1854,2
240,1833,1621,1835,2
240,1831,1622,1864,2
240,1845,1595,1834,2
240,1832,1592,1796,2
240,1832,1576,1827,2
240,1831,1576,1836,2
240,1831,1571,1822,2
240,1828,1569,1864,2
240,1836,1545,1823,2
240,1824,1539,1780,2
240,1826,1537,1816,2
240,1826,1537,1824,2
240,1826,1532,1824,2
240,1825,1532,1816,2
240,1818,1526,1793,2
240,1823,1532,1847,2
240,1829,1509,1827,2
240,1819,1487,1838,2
240,1813,1483,1838,2
240,1813,1483,1823,2
240,1813,1493,1799,2
240,1817,1493,1847,2
240,1820,1462,1816,2
240,1807,1466,1737,2
240,1795,1466,1797,2
240,1795,1441,1805,2
240,1794,1444,1805,2
240,1798,1399,1798,2
240,1778,1419,1768,2
240,1784,1449,1805,2
240,1806,1406,1787,2
240,1787,1380,1794,2
240,1780,1380,1794,2
240,1784,1380,1762,2
240,1763,1383,1741,2
240,1772,1403,1781,2
240,1790,1346,1761,2
240,1770,1308,1761,2
240,1763,1308,1764,2
240,1763,1296,1748,2
240,1767,1298,1748,2
240,1771,1251,1726,2
240,1751,1263,1675,2
240,1753,1312,1726,2
240,1745,1252,1734,2
240,1745,1223,1721,2
240,1748,1219,1721,2
240,1751,1170,1705,2
240,1735,1195,1652,2
240,1744,1233,1707,2
240,1762,1165,1661,2
240,1740,1124,1661,2
240,1734,1124,1665,2
240,1734,1123,1641,2
240,1736,1130,1708,2
240,1736,1070,1660,2
240,1723,1091,1562,2
240,1725,1160,1638,2
240,1719,1071,1639,2
240,1719,1026,1612,2
240,1715,1017,1612,2
240,1715,937,1608,2
240,1704,954,1513,2
240,1706,1023,1596,2
240,1706,926,1605,2
240,1699,892,1605,2
240,1699,892,1552,2
240,1699,870,1507,2
240,1697,881,1571,2
240,1697,767,1501,2
240,1684,777,1359,2
240,1673,727,1455,2
240,1670,727,1443,2
240,1670,691,1415,2
240,1662,705,1415,2
240,1659,587,1404,2
240,1642,599,1274,2
240,1639,738,1372,2
240,1639,609,1368,2
240,1621,579,1368,2
240,1614,579,1307,2
240,1600,587,1252,2
240,1594,629,1356,2
240,1594,499,1260,2
240,1575,532,1082,2
240,1558,492,1205,2
240,1549,492,1216,2
240,1549,503,1183,2
240,1540,537,1301,2
240,1538,418,1227,2
240,1517,444,1076,2
240,1490,444,1196,2
240,1490,395,1207,2
240,1467,402,1207,2
240,1457,402,1144,2
240,1441,442,1085,2
240,1435,509,1205,2
240,1429,393,1152,2
240,1407,340,1167,2
240,1377,343,1167,2
240,1363,343,1108,2
240,1345,351,1050,2
240,1342,418,1146,2
240,1331,321,1099,2
240,1314,369,1010,2
240,1287,369,1010,2
240,1287,343,1005,2
240,1267,358,1005,2
240,1253,268,952,2
240,1238,314,872,2
240,1228,419,952,2
240,1216,322,950,2
240,1216,299,931,2
240,1189,313,931,2
240,1176,234,898,2
240,1167,275,822,2
240,1151,367,873,2
240,1125,281,817,2
240,1126,263,817,2
240,1116,263,781,2
240,1116,296,749,2
240,1104,333,803,2
240,1089,251,748,2
240,1093,280,660,2
240,1079,414,713,2
240,1071,320,702,2
240,1071,308,676,2
240,1053,329,676,2
240,1040,246,645,2
240,1055,293,583,2
240,1042,404,635,2
240,1042,310,635,2
240,1036,297,635,2
240,1021,297,596,2
240,1021,333,554,2
240,1005,373,601,2
240,964,280,533,2
240,997,313,446,2
240,1001,294,500,2
240,989,294,490,2
240,989,312,463,2
240,976,343,500,2
240,929,258,463,2
240,970,284,388,2
240,977,284,418,2
240,977,259,410,2
240,959,270,410,2
240,939,270,362,2
240,979,309,335,2
240,930,366,349,2
240,857,277,325,2
240,919,244,311,2
240,929,253,311,2
240,921,253,268,2
240,972,267,247,2
240,945,327,248,2
240,869,248,214,2
240,934,293,178,2
240,945,293,183,2
240,945,282,167,2
240,916,301,167,2
240,889,225,148,2
240,956,271,130,2
240,876,368,125,2
240,774,283,107,2
240,869,269,94,2
240,893,287,94,2
240,880,287,70,2
240,962,308,59,2
240,918,387,53,2
240,817,295,43,2
240,914,269,43,2
240,929,269,26,2
240,929,297,20,2
240,903,330,20,2
240,864,248,14,2
240,966,336,13,2
240,934,446,10,2
240,956,342,5,2
240,956,317,4,2
240,936,334,4,2
240,900,249,3,2
240,992,319,5,2
240,930,408,4,2
240,798,311,3,2
240,901,285,3,2
240,918,285,2,2
240,918,311,2,2
240,880,348,2,2
240,836,263,2,2
240,943,321,6,2
240,909,440,5,2
240,935,341,4,2
240,935,326,5,2
240,922,345,5,2
240,889,267,6,2
240,989,317,12,2
240,965,423,9,2
240,815,337,12,2
240,931,328,12,2
240,953,328,13,2
240,953,375,16,2
240,939,420,12,2
240,899,334,18,2
240,1020,410,28,2
240,990,557,21,2
240,1026,452,21,2
240,1026,444,24,2
240,1006,471,24,2
240,971,378,28,2
240,1079,436,39,2
240,1048,556,30,2
240,1048,457,28,2
240,1072,446,28,2
240,1052,446,36,2
240,1052,489,42,2
240,1024,531,32,2
240,938,437,41,2
240,1034,469,62,2
240,1057,449,48,2
240,1036,449,48,2
240,1036,473,53,2
240,1006,503,39,2
240,923,428,48,2
240,995,474,72,2
240,929,579,56,2
240,929,493,54,2
240,912,480,54,2
240,877,480,62,2
240,946,479,71,2
240,891,513,53,2
240,782,455,73,2
240,852,480,103,2
240,848,469,79,2
240,823,469,75,2
240,823,489,80,2
240,800,508,60,2
240,725,464,72,2
240,799,482,104,2
240,815,482,80,2
240,815,480,77,2
240,788,494,77,2
240,760,494,88,2
240,820,512,101,2
240,751,548,76,2
240,662,507,86,2
240,745,501,83,2
240,761,517,83,2
240,749,517,92,2
240,749,560,106,2
240,734,588,79,2
240,665,546,115,2
240,753,577,157,2
240,791,577,120,2
240,791,573,120,2
240,782,596,120,2
240,765,551,123,2
240,850,585,150,2
240,839,662,114,2
240,720,613,136,2
240,829,619,132,2
240,870,644,132,2
240,867,644,150,2
240,966,666,172,2
240,927,737,130,2
240,822,681,148,2
240,937,683,148,2
240,960,683,138,2
240,960,716,146,2
240,941,743,146,2
240,905,706,167,2
240,1024,748,211,2
240,992,841,161,2
240,1025,786,145,2
240,1025,797,152,2
240,1015,812,152,2
240,981,779,172,2
240,1092,809,213,2
240,983,876,162,2
240,842,832,191,2
240,970,843,191,2
240,987,843,181,2
240,987,881,193,2
240,986,896,144,2
240,909,872,157,2
240,1005,888,231,2
240,942,936,179,2
240,943,912,176,2
240,943,923,191,2
240,877,927,191,2
240,823,915,226,2
240,900,930,277,2
240,856,940,210,2
240,856,936,188,2
240,847,944,188,2
240,828,944,212,2
240,828,957,240,2
240,805,970,181,2
240,738,960,254,2
240,810,974,336,2
240,832,982,257,2
240,831,982,242,2
240,831,998,257,2
240,829,1016,192,2
240,785,1007,233,2
240,872,1030,320,2
240,843,1060,246,2
240,843,1058,237,2
240,881,1062,237,2
240,879,1062,275,2
240,972,1071,313,2
240,942,1099,239,2
240,859,1089,299,2
240,970,1113,428,2
240,1027,1124,337,2
240,1030,1124,329,2
240,1030,1163,353,2
240,1033,1188,275,2
240,972,1170,323,2
240,1103,1193,440,2
240,1183,1193,353,2
240,1183,1223,345,2
240,1195,1240,345,2
240,1168,1240,397,2
240,1297,1275,442,2
240,1236,1318,360,2
240,1088,1290,394,2
240,1247,1301,384,2
240,1315,1314,384,2
240,1311,1314,429,2
240,1454,1326,471,2
240,1364,1378,406,2
240,1242,1346,439,2
240,1411,1354,439,2
240,1463,1354,438,2
240,1463,1390,465,2
240,1465,1424,465,2
240,1432,1380,494,2
240,1590,1432,573,2
240,1565,1519,507,2
240,1618,1468,501,2
240,1618,1476,523,2
240,1622,1502,523,2
240,1593,1451,547,2
240,1739,1493,621,2
240,1715,1575,559,2
240,1523,1520,623,2
240,1687,1527,623,2
240,1721,1527,662,2
240,1721,1566,698,2
240,1741,1600,660,2
240,1683,1541,729,2
240,1833,1570,819,2
240,1787,1629,767,2
240,1831,1629,777,2
240,1831,1640,795,2
240,1812,1665,795,2
240,1765,1605,816,2
240,1919,1653,884,2
240,1878,1761,825,2
240,1878,1690,822,2
240,1948,1693,822,2
240,1944,1693,864,2
240,2078,1708,903,2
240,2035,1766,864,2
240,1913,1711,940,2
240,2058,1759,1030,2
240,2118,1763,977,2
240,2116,1763,990,2
240,2116,1821,1015,2
240,2116,1868,976,2
240,2032,1808,1042,2
240,2188,1849,1119,2
240,2269,1849,1071,2
240,2269,1853,1079,2
240,2266,1877,1079,2
240,2242,1877,1125,2
240,2372,1907,1163,2
240,2266,1989,1116,2
240,2131,1912,1150,2
240,2302,1899,1157,2
240,2375,1920,1157,2
240,2372,1920,1197,2
240,2504,1942,1230,2
240,2457,2021,1188,2
240,2320,1935,1248,2
240,2470,1997,1275,2
240,2525,1997,1275,2
240,2525,1988,1276,2
240,2493,2012,1276,2
240,2448,1926,1281,2
240,2586,1974,1323,2
240,2547,2095,1290,2
240,2579,1989,1295,2
240,2579,1972,1303,2
240,2554,1987,1303,2
240,2508,1987,1347,2
240,2633,2041,1380,2
240,2548,2127,1359,2
240,2367,2012,1377,2
240,2506,1975,1377,2
240,2522,1975,1392,2
240,2522,2004,1404,2
240,2524,2037,1396,2
240,2440,1951,1418,2
240,2565,1984,1450,2
240,2502,2035,1443,2
240,2517,2035,1461,2
240,2517,2021,1472,2
240,2516,2038,1466,2
240,2441,1954,1485,2
240,2543,2005,1506,2
240,2486,2109,1500,2
240,2486,2016,1514,2
240,2494,2006,1514,2
240,2471,2006,1534,2
240,2544,2001,1554,2
240,2465,2047,1540,2
240,2363,1962,1561,2
240,2450,2001,1590,2
240,2382,2013,1581,2
240,2392,2013,1590,2
240,2392,2024,1607,2
240,2363,2051,1591,2
240,2308,1968,1615,2
240,2392,1994,1640,2
240,2418,1994,1628,2
240,2418,1961,1625,2
240,2390,1966,1625,2
240,2362,1966,1637,2
240,2421,1990,1656,2
240,2374,2045,1641,2
240,2285,1972,1652,2
240,2349,1952,1652,2
240,2352,1956,1652,2
240,2336,1956,1671,2
240,2392,1961,1686,2
240,2354,2013,1677,2
240,2284,1962,1686,2
240,2343,1996,1714,2
240,2348,1996,1714,2
240,2348,2004,1717,2
240,2314,2010,1717,2
240,2282,1980,1729,2
240,2344,2021,1737,2
240,2318,2068,1739,2
240,2330,2023,1749,2
240,2330,2021,1755,2
240,2316,2024,1755,2
240,2290,2024,1775,2
240,2345,2054,1779,2
240,2307,2085,1785,2
240,2224,2047,1788,2
240,2290,2044,1788,2
240,2306,2044,1807,2
240,2306,2074,1822,2
240,2318,2096,1818,2
240,2285,2060,1842,2
240,2342,2082,1852,2
240,2320,2108,1855,2
240,2335,2108,1857,2
240,2335,2108,1866,2
240,2318,2124,1866,2
240,2300,2080,1879,2
240,2357,2115,1889,2
240,2345,2167,1887,2
240,2345,2130,1887,2
240,2360,2122,1887,2
240,2359,2122,1888,2
240,2398,2112,1903,2
240,2366,2151,1884,2
240,2331,2098,1896,2
240,2382,2130,1925,2
240,2407,2122,1912,2
240,2407,2122,1914,2
240,2407,2141,1925,2
240,2402,2171,1910,2
240,2376,2117,1918,2
240,2427,2139,1945,2
240,2460,2139,1927,2
240,2460,2135,1924,2
240,2464,2140,1924,2
240,2452,2140,1939,2
240,2509,2168,1943,2
240,2461,2210,1944,2
240,2411,2164,1941,2
240,2484,2164,1941,2
240,2526,2172,1941,2
240,2529,2172,1960,2
240,2604,2194,1966,2
240,2562,2242,1975,2
240,2510,2204,1975,2
240,2593,2240,1991,2
240,2641,2240,1991,2
240,2641,2275,1999,2
240,2646,2300,1999,2
240,2630,2262,2015,2
240,2723,2332,2023,2
240,2717,2408,2033,2
240,2757,2357,2044,2
240,2757,2363,2050,2
240,2776,2383,2050,2
240,2764,2332,2064,2
240,2860,2383,2068,2
240,2794,2467,2069,2
240,2694,2416,2079,2
240,2825,2429,2079,2
240,2867,2429,2085,2
240,2867,2474,2103,2
240,2870,2524,2080,2
240,2841,2440,2097,2
240,2958,2488,2121,2
240,2935,2554,2107,2
240,2977,2554,2108,2
240,2977,2560,2126,2
240,3001,2601,2104,2
240,2962,2507,2120,2
240,3070,2572,2151,2
240,3040,2707,2129,2
240,3040,2610,2127,2
240,3085,2593,2127,2
240,3076,2593,2136,2
240,3178,2594,2151,2
240,3100,2663,2136,2
240,3004,2573,2138,2
240,3117,2620,2160,2
240,3152,2605,2160,2
240,3139,2605,2163,2
240,3139,2658,2167,2
240,3083,2705,2153,2
240,3008,2613,2160,2
240,3131,2650,2205,2
240,3178,2650,2181,2
240,3178,2644,2179,2
240,3146,2657,2179,2
240,3102,2597,2182,2
240,3209,2667,2191,2
240,3174,2747,2189,2
240,3120,2664,2194,2
240,3120,2656,2199,2
240,3134,2666,2199,2
240,3099,2666,2217,2
240,3203,2714,2222,2
240,3137,2771,2219,2
240,2987,2689,2222,2
240,3104,2666,2222,2
240,3123,2666,2224,2
240,3123,2696,2239,2
240,3105,2732,2218,2
240,3047,2650,2241,2
240,3155,2686,2261,2
240,3111,2732,2249,2
240,3137,2732,2244,2
240,3137,2725,2258,2
240,3152,2756,2231,2
240,3103,2666,2252,2
240,3211,2728,2279,2
240,3174,2846,2266,2
240,3174,2756,2263,2
240,3212,2738,2263,2
240,3207,2738,2268,2
240,3305,2731,2284,2
240,3265,2801,2260,2
240,3167,2703,2268,2
240,3283,2757,2287,2
240,3335,2742,2287,2
240,3331,2742,2293,2
240,3331,2790,2302,2
240,3325,2846,2284,2
240,3254,2740,2291,2
240,3391,2788,2330,2
240,3476,2788,2307,2
240,3476,2788,2307,2
240,3486,2814,2307,2
240,3459,2738,2315,2
240,3598,2799,2327,2
240,3532,2927,2327,2
240,3366,2824,2330,2
240,3531,2822,2332,2
240,3576,2842,2332,2
240,3553,2842,2351,2
240,3688,2874,2360,2
240,3620,2971,2366,2
240,3462,2865,2370,2
240,3606,2838,2370,2
240,3626,2838,2384,2
240,3626,2881,2395,2
240,3579,2926,2395,2
240,3522,2824,2411,2
240,3660,2904,2420,2
240,3615,3051,2420,2
240,3645,2933,2422,2
240,3645,2913,2431,2
240,3616,2940,2431,2
240,3568,2830,2437,2
240,3697,2860,2444,2
240,3657,3001,2439,2
240,3454,2894,2450,2
240,3596,2878,2450,2
240,3614,2878,2449,2
240,3614,2921,2458,2
240,3618,2973,2444,2
240,3539,2851,2450,2
240,3672,2892,2467,2
240,3611,2952,2453,2
240,3637,2952,2452,2
240,3637,2935,2459,2
240,3603,2965,2459,2
240,3555,2845,2459,2
240,3686,2947,2476,2
240,3647,3084,2463,2
240,3647,2944,2456,2
240,3687,2914,2456,2
240,3670,2914,2448,2
240,3670,2943,2448,2
240,3649,2987,2449,2
240,3554,2866,2451,2
240,3682,2902,2463,2
240,3727,2874,2455,2
240,3711,2874,2453,2
240,3711,2899,2450,2
240,3616,2943,2450,2
240,3545,2837,2451,2
240,3677,2915,2463,2
240,3621,3082,2462,2
240,3621,2947,2466,2
240,3656,2932,2466,2
240,3635,2932,2474,2
240,3749,2935,2472,2
240,3689,3000,2471,2
240,3555,2885,2472,2
240,3678,2937,2477,2
240,3705,2919,2478,2
240,3684,2919,2479,2
240,3684,2958,2477,2
240,3660,3000,2471,2
240,3561,2882,2474,2
240,3686,2918,2476,2
240,3614,2984,2472,2
240,3614,2984,2471,2
240,3639,2974,2471,2
240,3614,2974,2471,2
240,3733,2970,2480,2
240,3671,3047,2467,2
240,3525,2915,2470,2
240,3655,2975,2470,2
240,3681,2950,2470,2
240,3659,2950,2464,2
240,3659,2993,2470,2
240,3630,3043,2459,2
240,3524,2910,2462,2
240,3659,2952,2476,2
240,3702,2952,2461,2
240,3702,2907,2453,2
240,3665,2919,2453,2
240,3614,2919,2456,2
240,3731,2945,2460,2
240,3600,3046,2457,2
240,3445,2919,2456,2
240,3595,2876,2453,2
240,3632,2886,2453,2
240,3608,2886,2454,2
240,3729,2938,2454,2
240,3663,3014,2452,2
240,3519,2891,2451,2
240,3650,2951,2462,2
240,3679,2951,2462,2
240,3679,2930,2466,2
240,3631,2951,2466,2
240,3577,2839,2468,2
240,3703,2896,2469,2
240,3661,3029,2467,2
240,3594,2908,2469,2
240,3594,2885,2474,2
240,3617,2904,2474,2
240,3591,2904,2479,2
240,3716,2923,2480,2
240,3611,3013,2478,2
240,3473,2889,2478,2
240,3617,2842,2478,2
240,3646,2842,2467,2
240,3646,2863,2473,2
240,3618,2904,2473,2
240,3574,2793,2475,2
240,3701,2861,2481,2
240,3662,3005,2471,2
240,3598,2880,2473,2
240,3598,2853,2470,2
240,3618,2876,2470,2
240,3590,2876,2466,2
240,3715,2933,2476,2
240,3648,3026,2463,2
240,3495,2887,2465,2
240,3632,2829,2465,2
240,3652,2829,2450,2
240,3652,2852,2441,2
240,3609,2888,2441,2
240,3557,2784,2431,2
240,3688,2892,2440,2
240,3646,3029,2431,2
240,3674,2893,2426,2
240,3674,2862,2414,2
240,3649,2874,2414,2
240,3605,2874,2410,2
240,3725,2929,2412,2
240,3643,3019,2400,2
240,3473,2886,2393,2
240,3614,2840,2393,2
240,3627,2840,2377,2
240,3627,2873,2367,2
240,3569,2905,2367,2
240,3505,2806,2358,2
240,3649,2875,2346,2
240,3595,3010,2321,2
240,3622,2890,2283,2
240,3622,2864,2266,2
240,3583,2881,2266,2
240,3524,2881,2237,2
240,3662,2904,2221,2
240,3561,2990,2178,2
240,3346,2867,2164,2
240,3514,2825,2164,2
240,3532,2825,2112,2
240,3532,2858,2108,2
240,3459,2904,2108,2
240,3382,2787,2102,2
240,3555,2902,2119,2
240,3498,3035,2060,2
240,3535,2900,2013,2
240,3535,2856,2013,2
240,3502,2877,2013,2
240,3446,2877,2027,2
240,3604,2932,2045,2
240,3449,3013,1984,2
240,3250,2874,1996,2
240,3445,2939,1973,2
240,3499,2939,1973,2
240,3499,2882,1955,2
240,3443,2903,1955,2
240,3368,2774,1935,2
240,3544,2831,1973,2
240,3484,2977,1889,2
240,3199,2841,1910,2
240,3398,2806,1875,2
240,3427,2824,1875,2
240,3385,2824,1859,2
240,3560,2837,1877,2
240,3400,2937,1784,2
240,3196,2805,1791,2
240,3404,2876,1795,2
240,3462,2876,1795,2
240,3462,2845,1755,2
240,3396,2856,1755,2
240,3314,2754,1722,2
240,3504,2807,1748,2
240,3282,2934,1645,2
240,3023,2815,1652,2
240,3269,2794,1601,2
240,3325,2806,1601,2
240,3283,2806,1574,2
240,3484,2828,1578,2
240,3366,2914,1461,2
240,3111,2804,1493,2
240,3335,2866,1631,2
240,3378,2866,1474,2
240,3378,2864,1426,2
240,3280,2885,1426,2
240,3180,2794,1391,2
240,3401,2854,1419,2
240,3238,2961,1278,2
240,2893,2857,1293,2
240,3164,2840,1232,2
240,3203,2856,1232,2
240,3143,2856,1217,2
240,3377,2884,1243,2
240,3241,2962,1102,2
240,2932,2860,1124,2
240,3196,2920,1319,2
240,3251,2920,1157,2
240,3251,2895,1136,2
240,3152,2922,1136,2
240,3049,2800,1129,2
240,3303,2865,1211,2
240,3034,2985,1060,2
240,2688,2869,1128,2
240,3012,2837,1106,2
240,3098,2862,1106,2
240,3057,2862,1145,2
240,3316,2912,1205,2
240,3193,2991,1062,2
240,2894,2855,1121,2
240,3169,2793,1121,2
240,3216,2793,1089,2
240,3216,2799,1113,2
240,3154,2838,1113,2
240,3069,2722,1170,2
240,3320,2821,1282,2
240,3166,2956,1159,2
240,2835,2813,1237,2
240,3123,2774,1232,2
240,3201,2790,1232,2
240,3166,2790,1304,2
240,3397,2799,1370,2
240,3291,2898,1261,2
240,3037,2761,1303,2
240,3280,2830,1378,2
240,3349,2830,1378,2
240,3349,2798,1369,2
240,3281,2809,1369,2
240,3200,2705,1376,2
240,3419,2801,1449,2
240,3274,2916,1366,2
240,2976,2782,1413,2
240,3230,2749,1405,2
240,3286,2760,1405,2
240,3246,2760,1466,2
240,3457,2820,1507,2
240,3278,2895,1434,2
240,3061,2767,1463,2
240,3302,2825,1523,2
240,3379,2825,1523,2
240,3379,2811,1524,2
240,3318,2831,1524,2
240,3241,2725,1522,2
240,3450,2788,1585,2
240,3390,2913,1529,2
240,3084,2799,1574,2
240,3310,2778,1577,2
240,3349,2794,1577,2
240,3311,2794,1626,2
240,3506,2821,1664,2
240,3408,2906,1612,2
240,3185,2793,1648,2
240,3394,2858,1764,2
240,3453,2858,1713,2
240,3453,2831,1731,2
240,3400,2860,1731,2
240,3332,2732,1751,2
240,3518,2798,1814,2
240,3334,2934,1760,2
240,3101,2811,1814,2
240,3330,2784,1828,2
240,3401,2811,1828,2
240,3378,2811,1874,2
240,3556,2831,1916,2
240,3477,2927,1862,2
240,3282,2795,1895,2
240,3469,2870,1938,2
240,3523,2870,1938,2
240,3523,2823,1936,2
240,3475,2842,1936,2
240,3415,2719,1935,2
240,3581,2810,1982,2
240,3474,2938,1931,2
240,3246,2795,1956,2
240,3439,2756,1947,2
240,3480,2772,1947,2
240,3447,2772,1973,2
240,3608,2823,2000,2
240,3522,2917,1952,2
240,3324,2775,1961,2
240,3500,2721,1961,2
240,3521,2721,1946,2
240,3521,2749,1939,2
240,3462,2783,1939,2
240,3391,2685,1941,2
240,3562,2796,1973,2
240,3507,2926,1938,2
240,3242,2788,1950,2
240,3432,2752,1935,2
240,3459,2760,1935,2
240,3419,2760,1945,2
240,3586,2744,1957,2
240,3493,2851,1927,2
240,3289,2729,1937,2
240,3473,2695,1937,2
240,3501,2695,1942,2
240,3501,2728,1953,2
240,3456,2767,1953,2
240,3395,2657,1979,2
240,3566,2732,2000,2
240,3398,2869,1978,2
240,3188,2745,1999,2
240,3398,2722,2009,2
240,3460,2744,2009,2
240,3434,2744,2029,2
240,3599,2770,2041,2
240,3469,2862,2018,2
240,3298,2732,2033,2
240,3483,2806,2056,2
240,3536,2806,2056,2
240,3536,2773,2062,2
240,3498,2799,2062,2
240,3443,2666,2063,2
240,3602,2729,2089,2
240,3503,2874,2057,2
240,3283,2736,2077,2
240,3468,2704,2077,2
240,3509,2728,2077,2
240,3482,2728,2095,2
240,3634,2750,2116,2
240,3559,2858,2090,2
240,3382,2719,2102,2
240,3545,2794,2121,2
240,3585,2794,2121,2
240,3585,2760,2117,2
240,3530,2785,2117,2
240,3470,2659,2122,2
240,3622,2726,2148,2
240,3573,2882,2137,2
240,3505,2742,2152,2
240,3505,2715,2161,2
240,3536,2736,2161,2
240,3508,2736,2192,2
240,3654,2801,2210,2
240,3580,2899,2212,2
240,3411,2752,2225,2
240,3568,2700,2225,2
240,3592,2700,2258,2
240,3592,2737,2267,2
240,3552,2779,2267,2
240,3499,2666,2281,2
240,3644,2787,2294,2
240,3602,2936,2312,2
240,3637,2791,2336,2
240,3637,2754,2344,2
240,3622,2770,2344,2
240,3579,2770,2359,2
240,3705,2837,2361,2
240,3628,2933,2379,2
240,3457,2783,2377,2
240,3602,2724,2377,2
240,3623,2724,2388,2
240,3623,2752,2399,2
240,3576,2804,2399,2
240,3521,2673,2404,2
240,3661,2758,2401,2
240,3617,2935,2413,2
240,3650,2785,2422,2
240,3650,2751,2431,2
240,3629,2780,2431,2
240,3588,2652,2438,2
240,3712,2760,2441,2
240,3597,2892,2457,2
240,3445,2744,2460,2
240,3595,2702,2460,2
240,3625,2702,2479,2
240,3625,2742,2482,2
240,3640,2791,2511,2
240,3585,2663,2501,2
240,3709,2797,2498,2
240,3667,2975,2536,2
240,3696,2809,2566,2
240,3696,2768,2569,2
240,3679,2787,2569,2
240,3643,2661,2577,2
240,3754,2726,2569,2
240,3725,2884,2615,2
240,3682,2744,2605,2
240,3682,2716,2605,2
240,3695,2716,2639,2
240,3695,2767,2639,2
240,3699,2822,2684,2
240,3637,2694,2671,2
240,3746,2739,2626,2
240,3698,2801,2670,2
240,3687,2801,2641,2
240,3687,2782,2649,2
240,3678,2811,2649,2
240,3641,2683,2652,2
240,3752,2753,2623,2
240,3723,2902,2665,2
240,3723,2762,2670,2
240,3760,2741,2670,2
240,3748,2741,2658,2
240,3748,2784,2647,2
240,3733,2837,2665,2
240,3650,2695,2634,2
240,3754,2740,2593,2
240,3694,2797,2619,2
240,3710,2797,2608,2
240,3710,2766,2601,2
240,3672,2798,2601,2
240,3626,2657,2591,2
240,3740,2728,2566,2
240,3705,2891,2584,2
240,3705,2742,2575,2
240,3742,2710,2575,2
240,3728,2710,2552,2
240,3728,2743,2540,2
240,3708,2799,2555,2
240,3623,2655,2534,2
240,3734,2696,2510,2
240,3673,2764,2526,2
240,3691,2764,2523,2
240,3691,2735,2514,2
240,3652,2762,2514,2
240,3604,2624,2491,2
240,3723,2692,2480,2
240,3686,2867,2499,2
240,3686,2709,2509,2
240,3721,2685,2509,2
240,3706,2685,2507,2
240,3706,2730,2489,2
240,3685,2777,2521,2
240,3595,2644,2489,2
240,3712,2685,2457,2
240,3646,2761,2490,2
240,3664,2761,2503,2
240,3664,2741,2493,2
240,3620,2770,2493,2
240,3568,2640,2478,2
240,3696,2765,2451,2
240,3652,2922,2487,2
240,3652,2757,2495,2
240,3690,2737,2495,2
240,3673,2737,2496,2
240,3673,2795,2488,2
240,3619,2852,2515,2
240,3525,2701,2492,2
240,3660,2754,2449,2
240,3711,2721,2484,2
240,3700,2721,2487,2
240,3700,2749,2485,2
240,3657,2797,2503,2
240,3576,2655,2500,2
240,3699,2701,2466,2
240,3643,2909,2497,2
240,3643,2761,2496,2
240,3680,2741,2496,2
240,3663,2741,2480,2
240,3770,2728,2480,2
240,3683,2817,2486,2
240,3570,2662,2469,2
240,3691,2731,2447,2
240,3728,2703,2468,2
240,3712,2703,2469,2
240,3712,2737,2472,2
240,3693,2798,2478,2
240,3600,2645,2467,2
240,3716,2696,2455,2
240,3654,2919,2466,2
240,3654,2760,2468,2
240,3681,2731,2468,2
240,3660,2731,2456,2
240,3767,2722,2443,2
240,3706,2806,2458,2
240,3578,2662,2426,2
240,3695,2722,2412,2
240,3720,2690,2424,2
240,3701,2690,2430,2
240,3701,2735,2418,2
240,3674,2786,2439,2
240,3578,2650,2418,2
240,3699,2687,2403,2
240,3633,2757,2413,2
240,3633,2757,2413,2
240,3650,2747,2413,2
240,3626,2747,2409,2
240,3742,2753,2396,2
240,3678,2831,2424,2
240,3534,2700,2405,2
240,3661,2761,2372,2
240,3686,2733,2389,2
240,3666,2733,2388,2
240,3666,2770,2376,2
240,3642,2817,2397,2
240,3539,2690,2384,2
240,3669,2729,2358,2
240,3595,2792,2374,2
240,3595,2792,2372,2
240,3623,2785,2372,2
240,3596,2785,2366,2
240,3719,2828,2362,2
240,3653,2904,2365,2
240,3497,2753,2368,2
240,3633,2819,2359,2
240,3664,2792,2359,2
240,3642,2792,2350,2
240,3642,2821,2348,2
240,3617,2872,2338,2
240,3505,2721,2338,2
240,3643,2772,2326,2
240,3691,2772,2329,2
240,3691,2708,2319,2
240,3660,2721,2319,2
240,3615,2721,2297,2
240,3732,2730,2298,2
240,3651,2842,2272,2
240,3480,2692,2267,2
240,3619,2771,2256,2
240,3641,2746,2256,2
240,3614,2746,2242,2
240,3614,2790,2242,2
240,3542,2852,2216,2
240,3433,2695,2212,2
240,3590,2741,2228,2
240,3649,2741,2195,2
240,3649,2688,2170,2
240,3612,2695,2170,2
240,3562,2695,2159,2
240,3691,2676,2153,2
240,3649,2790,2134,2
240,3456,2663,2123,2
240,3599,2737,2122,2
240,3610,2714,2122,2
240,3575,2714,2108,2
240,3575,2779,2101,2
240,3485,2833,2086,2
240,3365,2693,2090,2
240,3538,2737,2114,2
240,3599,2737,2083,2
240,3599,2711,2073,2
240,3555,2727,2073,2
240,3497,2727,2069,2
240,3641,2755,2066,2
240,3486,2852,2050,2
240,3289,2719,2048,2
240,3474,2675,2039,2
240,3521,2686,2039,2
240,3493,2686,2031,2
240,3642,2710,2027,2
240,3562,2797,2008,2
240,3383,2676,2026,2
240,3545,2742,2046,2
240,3577,2742,2020,2
240,3577,2711,2018,2
240,3520,2740,2018,2
240,3453,2740,2018,2
240,3609,2809,2029,2
240,3505,2908,1990,2
240,3280,2748,2002,2
240,3465,2682,1995,2
240,3502,2700,1995,2
240,3473,2700,1991,2
240,3627,2715,2005,2
240,3550,2811,1965,2
240,3370,2669,1986,2
240,3536,2741,2021,2
240,3579,2741,1989,2
240,3579,2688,1977,2
240,3538,2703,1977,2
240,3484,2703,1983,2
240,3633,2714,2003,2
240,3539,2825,1962,2
240,3338,2669,1970,2
240,3509,2610,1957,2
240,3544,2619,1957,2
240,3517,2619,1958,2
240,3517,2714,1973,2
240,3528,2794,1941,2
240,3374,2640,1956,2
240,3541,2697,2004,2
240,3590,2697,1968,2
240,3590,2655,1956,2
240,3539,2667,1956,2
240,3483,2667,1965,2
240,3632,2685,1975,2
240,3481,2785,1956,2
240,3303,2639,1958,2
240,3486,2711,1973,2
240,3533,2680,1973,2
240,3509,2680,1967,2
240,3509,2722,1966,2
240,3430,2775,1952,2
240,3314,2626,1963,2
240,3501,2670,1991,2
240,3577,2670,1965,2
240,3577,2633,1967,2
240,3541,2649,1967,2
240,3488,2649,1980,2
240,3636,2715,1983,2
240,3489,2799,1969,2
240,3308,2650,1970,2
240,3489,2717,1983,2
240,3536,2690,1983,2
240,3512,2690,1982,2
240,3512,2731,1983,2
240,3484,2779,1970,2
240,3351,2626,1981,2
240,3526,2670,1995,2
240,3592,2670,1982,2
240,3592,2613,1982,2
240,3556,2632,1982,2
240,3506,2632,1991,2
240,3650,2651,2005,2
240,3563,2758,1983,2
240,3373,2606,1992,2
240,3536,2684,2014,2
240,3577,2651,1996,2
240,3554,2651,1988,2
240,3554,2684,1999,2
240,3529,2742,1980,2
240,3398,2583,1989,2
240,3561,2632,2010,2
240,3472,2700,1990,2
240,3472,2700,1977,2
240,3509,2673,1977,2
240,3477,2673,1971,2
240,3630,2663,1976,2
240,3547,2753,1954,2
240,3363,2589,1952,2
240,3530,2656,1982,2
240,3568,2620,1955,2
240,3541,2620,1938,2
240,3541,2652,1932,2
240,3508,2704,1908,2
240,3376,2546,1914,2
240,3545,2591,1935,2
240,3456,2819,1904,2
240,3456,2648,1876,2
240,3492,2627,1876,2
240,3460,2627,1868,2
240,3617,2621,1867,2
240,3531,2704,1841,2
240,3342,2553,1843,2
240,3514,2619,1871,2
240,3549,2587,1833,2
240,3521,2587,1815,2
240,3521,2622,1809,2
240,3486,2674,1779,2
240,3342,2529,1780,2
240,3518,2572,1802,2
240,3425,2787,1762,2
240,3425,2625,1743,2
240,3465,2612,1743,2
240,3432,2612,1748,2
240,3596,2613,1757,2
240,3455,2693,1715,2
240,3276,2544,1732,2
240,3465,2609,1774,2
240,3520,2581,1729,2
240,3496,2581,1708,2
240,3496,2616,1713,2
240,3468,2667,1669,2
240,3333,2520,1700,2
240,3513,2616,1739,2
240,3419,2814,1695,2
240,3419,2649,1674,2
240,3461,2623,1674,2
240,3428,2623,1682,2
240,3428,2683,1703,2
240,3388,2752,1663,2
240,3225,2588,1690,2
240,3429,2645,1757,2
240,3498,2606,1705,2
240,3479,2606,1694,2
240,3479,2635,1702,2
240,3454,2687,1663,2
240,3322,2543,1679,2
240,3505,2690,1740,2
240,3413,2881,1695,2
240,3413,2701,1691,2
240,3453,2671,1691,2
240,3419,2671,1709,2
240,3587,2665,1723,2
240,3439,2737,1692,2
240,3263,2595,1717,2
240,3457,2658,1782,2
240,3515,2633,1742,2
240,3494,2633,1738,2
240,3494,2665,1741,2
240,3468,2709,1712,2
240,3339,2580,1731,2
240,3518,2722,1776,2
240,3428,2894,1741,2
240,3428,2730,1740,2
240,3473,2710,1740,2
240,3443,2710,1770,2
240,3443,2758,1788,2
240,3410,2817,1755,2
240,3257,2669,1800,2
240,3454,2720,1846,2
240,3524,2692,1805,2
240,3505,2692,1800,2
240,3505,2724,1812,2
240,3482,2773,1773,2
240,3352,2639,1812,2
240,3526,2778,1853,2
240,3435,2946,1814,2
240,3435,2787,1801,2
240,3483,2757,1801,2
240,3456,2757,1814,2
240,3456,2803,1841,2
240,3369,2864,1793,2
240,3236,2706,1844,2
240,3441,2759,1907,2
240,3522,2724,1856,2
240,3509,2724,1842,2
240,3509,2747,1856,2
240,3493,2795,1805,2
240,3378,2653,1827,2
240,3548,2782,1887,2
240,3467,2950,1839,2
240,3437,2790,1878,2
240,3437,2745,1878,2
240,3432,2745,1860,2
240,3432,2785,1869,2
240,3365,2836,1828,2
240,3258,2695,1845,2
240,3460,2737,1915,2
240,3550,2703,1867,2
240,3543,2703,1870,2
240,3543,2734,1878,2
240,3447,2777,1878,2
240,3367,2665,1887,2
240,3543,2739,1940,2
240,3488,2903,1902,2
240,3413,2765,1930,2
240,3413,2744,1930,2
240,3433,2744,1944,2
240,3433,2806,1954,2
240,3435,2854,1939,2
240,3332,2745,1962,2
240,3515,2786,2008,2
240,3439,2976,1984,2
240,3479,2845,1997,2
240,3479,2837,2007,2
240,3450,2860,2007,2
240,3394,2759,2028,2
240,3566,2826,2060,2
240,3519,2960,2047,2
240,3447,2843,2068,2
240,3447,2829,2068,2
240,3470,2829,2092,2
240,3470,2890,2116,2
240,3479,2945,2092,2
240,3381,2830,2138,2
240,3552,2878,2176,2
240,3482,3061,2158,2
240,3520,2938,2164,2
240,3520,2924,2183,2
240,3490,2954,2183,2
240,3435,2834,2207,2
240,3596,2943,2240,2
240,3555,3069,2226,2
240,3555,2945,2233,2
240,3617,2918,2233,2
240,3607,2918,2251,2
240,3607,2943,2279,2
240,3597,2992,2252,2
240,3503,2859,2284,2
240,3643,2940,2334,2
240,3580,3112,2314,2
240,3610,2973,2328,2
240,3610,2944,2350,2
240,3579,2977,2350,2
240,3532,2855,2362,2
240,3670,2915,2405,2
240,3635,3063,2387,2
240,3580,2935,2420,2
240,3580,2913,2420,2
240,3601,2913,2442,2
240,3601,2958,2452,2
240,3605,3003,2461,2
240,3536,2896,2469,2
240,3671,2929,2503,2
240,3618,2999,2504,2
240,3648,2999,2534,2
240,3648,2993,2545,2
240,3625,3018,2545,2
240,3587,2920,2561,2
240,3712,3020,2588,2
240,3678,3154,2606,2
240,3678,3025,2640,2
240,3721,3012,2640,2
240,3710,3012,2675,2
240,3710,3061,2684,2
240,3727,3102,2721,2
240,3645,3007,2729,2
240,3745,3040,2723,2
240,3773,3021,2755,2
240,3770,3021,2791,2
240,3770,3053,2797,2
240,3745,3083,2830,2
240,3700,3002,2838,2
240,3795,3060,2829,2
240,3767,3176,2867,2
240,3767,3079,2902,2
240,3804,3078,2902,2
240,3798,3078,2920,2
240,3798,3121,2928,2
240,3792,3163,2944,2
240,3734,3064,2949,2
240,3820,3107,2935,2
240,3782,3256,2974,2
240,3764,3161,2998,2
240,3764,3132,3013,2
240,3715,3152,3013,2
240,3704,3059,3019,2
240,3794,3120,3011,2
240,3790,3228,3042,2
240,3692,3143,3046,2
240,3784,3125,3046,2
240,3807,3125,3061,2
240,3807,3153,3075,2
240,3819,3198,3087,2
240,3786,3098,3083,2
240,3860,3160,3080,2
240,3838,3295,3098,2
240,3857,3190,3113,2
240,3857,3170,3123,2
240,3848,3195,3123,2
240,3778,3103,3121,2
240,3773,3130,3124,2
240,3740,3219,3139,2
240,3689,3131,3141,2
240,3777,3121,3141,2
240,3810,3121,3153,2
240,3810,3159,3151,2
240,3821,3197,3151,2
240,3808,3125,3151,2
240,3878,3211,3151,2
240,3866,3325,3190,2
240,3886,3220,3228,2
240,3886,3200,3234,2
240,3892,3211,3234,2
240,3883,3145,3254,2
240,3935,3157,3249,2
240,3894,3159,3297,2
240,3703,3099,3285,2
240,3467,3014,3285,2
240,3490,3014,3316,2
240,3490,3090,3310,2
240,3646,3153,3310,2
240,3695,3123,3313,2
240,3795,3226,3285,2
240,3817,3335,3341,2
240,3858,3259,3369,2
240,3858,3257,3362,2
240,3881,3270,3362,2
240,3872,3213,3360,2
240,3925,3230,3323,2
240,3915,3314,3361,2
240,3843,3253,3335,2
240,3900,3253,3335,2
240,3577,3253,3340,2
240,3577,3067,3336,2
240,3224,3043,3336,2
240,3299,3042,3325,2
240,3392,3123,3298,2
240,3508,3258,3327,2
240,3632,3231,3335,2
240,3632,3275,3341,2
240,3763,3310,3341,2
240,3790,3310,3329,2
240,3869,3340,3321,2
240,3863,3406,3348,2
240,3812,3338,3349,2
240,3877,3317,3349,2
240,3897,3317,3355,2
240,3897,3333,3362,2
240,3898,3361,3362,2
240,3513,3287,3357,2
240,3117,3123,3342,2
240,3033,3075,3357,2
240,3167,3070,3351,2
240,3295,3145,3356,2
240,3577,3205,3356,2
240,3666,3205,3352,2
240,3778,3250,3348,2
240,3793,3338,3364,2
240,3781,3274,3362,2
240,3857,3331,3355,2
240,3901,3331,3355,2
240,3901,3316,3357,2
240,3903,3330,3357,2
240,3895,3266,3359,2
240,3943,3302,3351,2
240,3919,3357,3389,2
240,3628,3283,3378,2
240,3166,3058,3386,2
240,3023,3044,3386,2
240,3191,3044,3389,2
240,3331,3103,3382,2
240,3472,3213,3425,2
240,3573,3184,3418,2
240,3709,3255,3376,2
240,3844,3255,3416,2
240,3844,3286,3423,2
240,3879,3304,3423,2
240,3861,3252,3431,2
240,3883,3280,3407,2
240,3876,3358,3456,2
240,3844,3294,3437,2
240,3902,3286,3448,2
240,3699,3184,3448,2
240,3277,3184,3440,2
240,2853,3057,3416,2
240,2889,3035,3462,2
240,3090,3041,3419,2
240,3254,3110,3366,2
240,3582,3110,3420,2
240,3582,3191,3437,2
240,3759,3237,3437,2
240,3799,3237,3424,2
240,3853,3256,3408,2
240,3852,3330,3453,2
240,3811,3260,3444,2
240,3827,3231,3459,2
240,3865,3248,3459,2
240,3883,3248,3451,2
240,3934,3264,3439,2
240,3597,3056,3475,2
240,3297,3024,3453,2
240,2867,2911,3386,2
240,2948,2911,3440,2
240,2948,2963,3447,2
240,3331,3039,3447,2
240,3496,3039,3438,2
240,3644,3132,3427,2
240,3726,3237,3470,2
240,3729,3178,3456,2
240,3734,3206,3429,2
240,3824,3199,3429,2
240,3819,3199,3433,2
240,3819,3217,3423,2
240,3839,3262,3466,2
240,3844,3182,3418,2
240,3903,3214,3370,2
240,3488,2827,3421,2
240,3488,2827,3426,2
240,2909,2793,3426,2
240,2989,2793,3400,2
240,3030,2853,3374,2
240,3238,2988,3426,2
240,3402,2975,3407,2
240,3578,3071,3326,2
240,3775,3090,3382,2
240,3722,3090,3387,2
240,3722,3096,3371,2
240,3733,3120,3423,2
240,3711,3052,3392,2
240,3699,3065,3326,2
240,3735,3214,3381,2
240,3735,3126,3391,2
240,3841,3098,3391,2
240,3282,3098,3375,2
240,2714,2871,3343,2
240,2684,2785,3397,2
240,2865,2779,3358,2
240,2960,2834,3271,2
240,3386,2889,3338,2
240,3541,2889,3354,2
240,3541,3015,3339,2
240,3646,3075,3392,2
240,3605,2997,3364,2
240,3599,3062,3291,2
240,3613,3130,3354,2
240,3613,3034,3365,2
240,3600,3015,3365,2
240,3675,3015,3341,2
240,3765,3024,3322,2
240,3687,2932,3366,2
240,3287,2859,3330,2
240,2716,2676,3241,2
240,2598,2666,3306,2
240,2797,2666,3311,2
240,2797,2779,3304,2
240,3089,2891,3350,2
240,3305,2843,3303,2
240,3517,2919,3249,2
240,3595,3016,3310,2
240,3595,2939,3322,2
240,3570,2930,3322,2
240,3544,2930,3297,2
240,3528,2911,3272,2
240,3532,2964,3329,2
240,3596,2896,3285,2
240,3701,2963,3215,2
240,3150,2822,3275,2
240,2732,2822,3286,2
240,2732,2566,3269,2
240,2711,2587,3327,2
240,2914,2619,3272,2
240,3068,2733,3220,2
240,3277,2954,3277,2
240,3277,2904,3299,2
240,3600,2944,3299,2
240,3478,2944,3284,2
240,3318,2891,3253,2
240,3378,2932,3315,2
240,3371,2886,3255,2
240,3337,2865,3176,2
240,3451,2886,3245,2
240,3566,2886,3267,2
240,3566,2988,3253,2
240,3135,2759,3312,2
240,2817,2737,3283,2
240,2360,2590,3204,2
240,2471,2593,3263,2
240,2471,2633,3276,2
240,3011,2742,3276,2
240,3247,2742,3263,2
240,3458,2847,3247,2
240,3537,2946,3290,2
240,3345,2903,3263,2
240,3082,2834,3180,2
240,3207,2845,3238,2
240,3110,2845,3242,2
240,3110,2771,3237,2
240,3242,2874,3271,2
240,3380,2845,3255,2
240,3549,2923,3196,2
240,3093,2542,3245,2
240,3093,2562,3240,2
240,2484,2536,3240,2
240,2571,2536,3208,2
240,2593,2593,3196,2
240,2892,2763,3223,2
240,3129,2754,3194,2
240,3375,2874,3140,2
240,3412,2850,3181,2
240,3130,2850,3180,2
240,3130,2736,3171,2
240,3140,2762,3198,2
240,3013,2735,3170,2
240,2833,2718,3131,2
240,3042,2907,3161,2
240,3042,2859,3166,2
240,3231,2789,3166,2
240,2743,2789,3139,2
240,2743,2412,3106,2
240,2601,2388,3148,2
240,2705,2458,3105,2
240,2731,2548,3045,2
240,3210,2651,3088,2
240,3390,2651,3097,2
240,3390,2837,3077,2
240,3270,2748,3128,2
240,3083,2718,3092,2
240,2907,2701,3034,2
240,2940,2682,3074,2
240,2940,2682,3076,2
240,2830,2691,3076,2
240,3049,2691,3062,2
240,3261,2778,3035,2
240,3065,2628,3087,2
240,2747,2620,3064,2
240,2215,2428,2971,2
240,2184,2450,3022,2
240,2434,2450,3024,2
240,2434,2629,3006,2
240,2795,2759,3054,2
240,3018,2738,3018,2
240,3226,2783,2956,2
240,3009,2543,3009,2
240,3009,2543,3014,2
240,2960,2588,3014,2
240,2882,2588,2991,2
240,2733,2544,2972,2
240,2784,2626,2999,2
240,2970,2617,2995,2
240,3204,2750,2925,2
240,2556,2617,2969,2
240,2202,2617,2956,2
240,2202,2346,2949,2
240,2245,2378,2965,2
240,2508,2417,2950,2
240,2747,2555,2900,2
240,3256,2555,2938,2
240,3256,2690,2928,2
240,3249,2676,2928,2
240,2846,2676,2901,2
240,2419,2529,2884,2
240,2557,2564,2901,2
240,2558,2543,2886,2
240,2355,2436,2862,2
240,2713,2506,2862,2
240,2981,2506,2859,2
240,2981,2718,2851,2
240,2633,2475,2872,2
240,2397,2450,2842,2
240,2004,2337,2806,2
240,2175,2337,2824,2
240,2175,2402,2817,2
240,2790,2518,2817,2
240,3035,2518,2800,2
240,3300,2673,2779,2
240,3154,2604,2816,2
240,2858,2569,2792,2
240,2407,2443,2789,2
240,2560,2456,2789,2
240,2338,2456,2773,2
240,2102,2406,2749,2
240,2420,2537,2786,2
240,2706,2538,2768,2
240,2964,2541,2722,2
240,2089,2541,2750,2
240,2089,2306,2753,2
240,1902,2283,2753,2
240,2079,2334,2758,2
240,2206,2411,2726,2
240,2526,2614,2764,2
240,2743,2603,2745,2
240,3086,2662,2750,2
240,2682,2541,2750,2
240,2439,2541,2729,2
240,2283,2514,2705,2
240,2386,2470,2738,2
240,2316,2465,2723,2
240,2136,2410,2695,2
240,2735,2410,2695,2
240,2735,2568,2704,2
240,2607,2471,2704,2
240,2256,2431,2700,2
240,1804,2201,2672,2
240,1838,2165,2689,2
240,2305,2218,2678,2
240,2305,2380,2684,2
240,2919,2514,2684,2
240,3038,2514,2662,2
240,3126,2532,2652,2
240,2763,2306,2665,2
240,2675,2291,2655,2
240,2585,2332,2655,2
240,2461,2332,2638,2
240,2461,2214,2620,2
240,2425,2272,2637,2
240,2669,2282,2613,2
240,2951,2481,2594,2
240,2672,2245,2609,2
240,2183,2227,2603,2
240,2183,2064,2588,2
240,2122,2096,2588,2
240,2368,2145,2570,2
240,2615,2282,2554,2
240,2816,2530,2574,2
240,2822,2477,2555,2
240,2831,2384,2555,2
240,2365,2384,2558,2
240,2365,2103,2539,2
240,2398,2157,2576,2
240,2259,2197,2544,2
240,1976,2075,2499,2
240,2143,2240,2531,2
240,2531,2256,2542,2
240,2531,2434,2529,2
240,2029,2236,2529,2
240,1831,2231,2520,2
240,1535,2078,2481,2
240,1709,2096,2514,2
240,1709,2139,2521,2
240,2509,2274,2521,2
240,2826,2274,2521,2
240,2826,2535,2512,2
240,2631,2387,2530,2
240,2279,2344,2518,2
240,1816,2219,2472,2
240,1986,2252,2498,2
240,1774,2252,2492,2
240,1774,2105,2489,2
240,2215,2222,2489,2
240,2498,2245,2484,2
240,2678,2274,2462,2
240,2268,1993,2483,2
240,2268,2051,2476,2
240,1793,2061,2476,2
240,1915,2061,2459,2
240,1915,2208,2459,2
240,2304,2406,2457,2
240,2598,2394,2453,2
240,2948,2471,2447,2
240,2219,2351,2450,2
240,1968,2351,2442,2
240,1968,2270,2442,2
240,2111,2242,2442,2
240,1938,2263,2433,2
240,1680,2182,2434,2
240,1957,2332,2430,2
240,1957,2357,2424,2
240,1994,2297,2424,2
240,1705,2297,2418,2
240,1353,2171,2411,2
240,1435,2130,2413,2
240,1723,2199,2408,2
240,1965,2309,2417,2
240,2726,2433,2412,2
240,2801,2433,2419,2
240,2801,2449,2416,2
240,2330,2245,2421,2
240,2225,2282,2416,2
240,2124,2291,2419,2
240,2062,2170,2410,2
240,2062,2170,2409,2
240,1827,2210,2409,2
240,2073,2210,2420,2
240,2311,2343,2419,2
240,2102,2182,2422,2
240,1897,2252,2419,2
240,1480,2090,2413,2
240,1561,2153,2413,2
240,1900,2153,2412,2
240,1900,2424,2410,2
240,2344,2598,2408,2
240,2363,2589,2412,2
240,2311,2484,2411,2
240,1568,2484,2409,2
240,1568,2243,2405,2
240,1816,2276,2405,2
240,1698,2276,2396,2
240,1463,2140,2398,2
240,1616,2176,2384,2
240,1890,2247,2390,2
240,2157,2343,2387,2
240,1632,2248,2387,2
240,1422,2248,2372,2
240,1422,2048,2372,2
240,1557,2090,2357,2
240,1904,2171,2360,2
240,2269,2333,2367,2
240,2938,2333,2358,2
240,2938,2513,2351,2
240,2268,2361,2351,2
240,1876,2361,2340,2
240,1431,2210,2332,2
240,1617,2195,2325,2
240,1602,2227,2318,2
240,1346,2063,2313,2
240,1680,2119,2313,2
240,1940,2119,2312,2
240,1940,2149,2306,2
240,1674,1965,2307,2
240,1585,2029,2298,2
240,1338,1964,2290,2
240,1631,1964,2287,2
240,1631,2106,2285,2
240,2401,2262,2285,2
240,2679,2262,2284,2
240,2927,2309,2276,2
240,2505,2076,2283,2
240,2195,2096,2275,2
240,1841,2090,2272,2
240,1875,2071,2272,2
240,1625,2071,2260,2
240,1625,1908,2253,2
240,1770,1994,2263,2
240,1861,2059,2259,2
240,1809,2010,2240,2
240,1256,2010,2249,2
240,1256,1890,2250,2
240,1300,1908,2250,2
240,1565,1908,2239,2
240,1800,2031,2238,2
240,2209,2282,2240,2
240,2362,2277,2243,2
240,2491,2248,2234,2
240,1729,2105,2234,2
240,1723,2105,2223,2
240,1723,2066,2223,2
240,1689,1960,2219,2
240,1619,1995,2216,2
240,1431,1959,2207,2
240,1881,1959,2214,2
240,1881,2094,2208,2
240,1628,1994,2208,2
240,1420,1994,2193,2
240,1107,1872,2188,2
240,1264,1864,2185,2
240,1589,1924,2182,2
240,1908,2111,2177,2
240,2668,2239,2177,2
240,2526,2239,2176,2
240,2337,2146,2173,2
240,1940,1917,2176,2
240,1953,1942,2164,2
240,1918,1966,2164,2
240,1546,1966,2161,2
240,1546,1871,2158,2
240,1616,1912,2158,2
240,1847,1912,2159,2
240,2064,2000,2149,2
240,1827,1800,2166,2
240,1707,1865,2154,2
240,1353,1825,2153,2
240,1534,1877,2153,2
240,1909,1877,2145,2
240,2285,2053,2136,2
240,2585,2297,2155,2
240,2392,2273,2147,2
240,2130,2104,2137,2
240,1420,2104,2137,2
240,1420,1920,2143,2
240,1708,1956,2143,2
240,1555,1984,2150,2
240,1294,1876,2135,2
240,1497,1932,2147,2
240,1748,1975,2145,2
240,1966,1993,2149,2
240,1440,1883,2149,2
240,1335,1883,2130,2
240,1181,1847,2120,2
240,1415,1910,2125,2
240,1791,1945,2125,2
240,2255,2127,2125,2
240,2606,2127,2112,2
240,2606,2189,2115,2
240,1963,2021,2115,2
240,1739,1981,2103,2
240,1572,1949,2099,2
240,1710,1903,2092,2
240,1666,1906,2089,2
240,1412,1812,2086,2
240,1805,1886,2086,2
240,1855,1886,2081,2
240,1788,1841,2084,2
240,1586,1670,2079,2
240,1572,1713,2076,2
240,1431,1711,2062,2
240,1831,1711,2062,2
240,1831,1907,2050,2
240,2536,2075,2050,2
240,2604,2058,2043,2
240,2639,2038,2039,2
240,2191,1792,2049,2
240,2093,1797,2035,2
240,1971,1852,2029,2
240,1780,1797,2029,2
240,1626,1797,2025,2
240,1483,1792,2020,2
240,1713,1899,2037,2
240,1728,1915,2019,2
240,1591,1803,2016,2
240,1138,1803,2022,2
240,1138,1693,2024,2
240,1345,1733,2024,2
240,1677,1807,2031,2
240,2022,1965,2020,2
240,2354,2235,2046,2
240,2312,2201,2037,2
240,2269,2065,2043,2
240,1555,1917,2043,2
240,1662,1917,2043,2
240,1737,1941,2032,2
240,1615,1794,2055,2
240,1619,1845,2046,2
240,1571,1864,2028,2
240,1990,1864,2046,2
240,1990,2014,2065,2
240,1543,1900,2065,2
240,1358,1916,2076,2
240,1097,1794,2065,2
240,1286,1824,2069,2
240,1620,1891,2074,2
240,2037,2111,2086,2
240,2738,2251,2086,2
240,2438,2251,2089,2
240,2126,2144,2088,2
240,1724,1901,2082,2
240,1796,1923,2088,2
240,1833,1959,2083,2
240,1391,1959,2083,2
240,1391,1824,2080,2
240,1646,1897,2080,2
240,1871,1939,2071,2
240,1978,1940,2085,2
240,1685,1733,2066,2
240,1626,1793,2072,2
240,1356,1804,2065,2
240,1612,1888,2065,2
240,2010,1888,2063,2
240,2422,2103,2082,2
240,2633,2289,2066,2
240,2352,2247,2073,2
240,1985,2046,2073,2
240,1722,2046,2063,2
240,1722,1995,2051,2
240,1839,1965,2051,2
240,1631,2006,2048,2
240,1365,1911,2053,2
240,1572,1983,2052,2
240,1719,2020,2049,2
240,1730,1976,2046,2
240,1261,1864,2046,2
240,1266,1864,2051,2
240,1226,1865,2048,2
240,1498,1984,2052,2
240,1879,2027,2049,2
240,2366,2222,2068,2
240,2657,2222,2068,2
240,2657,2200,2071,2
240,1863,2024,2071,2
240,1818,2042,2078,2
240,1800,2041,2069,2
240,1758,1901,2083,2
240,1710,1947,2077,2
240,1513,1950,2082,2
240,1921,2028,2082,2
240,1809,2028,2088,2
240,1617,1947,2078,2
240,1443,1751,2096,2
240,1506,1823,2089,2
240,1466,1830,2082,2
240,2016,1830,2082,2
240,2016,2070,2097,2
240,2668,2234,2097,2
240,2550,2190,2106,2
240,2406,2111,2098,2
240,2023,1837,2104,2
240,2014,1860,2103,2
240,1987,1927,2108,2
240,1641,1861,2108,2
240,1634,1861,2094,2
240,1636,1897,2093,2
240,1884,2026,2097,2
240,1795,2023,2103,2
240,1544,1869,2087,2
240,1154,1869,2087,2
240,1154,1730,2084,2
240,1476,1785,2084,2
240,1855,1818,2069,2
240,2249,1997,2076,2
240,2575,2304,2079,2
240,2217,2228,2079,2
240,2217,1994,2078,2
240,1524,1852,2078,2
240,1682,1852,2067,2
240,1783,1875,2071,2
240,1657,1723,2077,2
240,1767,1751,2076,2
240,1828,1855,2076,2
240,2046,1855,2088,2
240,2046,1892,2080,2
240,1548,1748,2080,2
240,1440,1786,2073,2
240,1247,1727,2058,2
240,1448,1807,2078,2
240,1963,1840,2092,2
240,1963,2079,2089,2
240,2703,2154,2089,2
240,2353,2154,2084,2
240,1975,1981,2071,2
240,1766,1875,2097,2
240,1865,1884,2086,2
240,1905,1898,2086,2
240,1641,1898,2108,2
240,1641,1799,2110,2
240,1895,1883,2110,2
240,1926,1928,2113,2
240,1847,1854,2098,2
240,1577,1621,2128,2
240,1471,1708,2141,2
240,1471,1787,2145,2
240,1819,1902,2145,2
240,2193,1902,2144,2
240,2603,2115,2139,2
240,2674,2164,2162,2
240,2369,2151,2159,2
240,1919,1957,2159,2
240,1862,1957,2161,2
240,1862,1989,2170,2
240,1773,1923,2167,2
240,1644,1955,2171,2
240,1451,1919,2169,2
240,1667,2022,2174,2
240,1577,2058,2178,2
240,1577,1940,2186,2
240,1201,1840,2186,2
240,1306,1898,2184,2
240,1318,1896,2189,2
240,1642,2085,2187,2
240,1968,2118,2196,2
240,2451,2321,2196,2
240,2344,2321,2194,2
240,2344,2146,2192,2
240,1949,1956,2192,2
240,1944,1989,2187,2
240,1898,2012,2195,2
240,1753,1791,2191,2
240,1649,1869,2192,2
240,1649,1947,2192,2
240,1929,2032,2192,2
240,1746,2084,2193,2
240,1452,1910,2196,2
240,1272,1711,2193,2
240,1451,1819,2193,2
240,1451,1948,2193,2
240,1840,1948,2203,2
240,1840,2241,2203,2
240,2300,2419,2216,2
240,2150,2399,2216,2
240,1906,2237,2214,2
240,1637,1915,2217,2
240,1696,1915,2221,2
240,1696,2023,2215,2
240,1390,1913,2215,2
240,1480,1999,2215,2
240,1499,2014,2214,2
240,1715,2006,2220,2
240,1715,2078,2225,2
240,1255,2011,2225,2
240,1152,2011,2219,2
240,1152,1903,2222,2
240,1347,1970,2211,2
240,1758,2056,2221,2
240,2199,2244,2228,2
240,2830,2309,2226,2
240,2353,2309,2221,2
240,2353,2079,2225,2
240,1948,2035,2210,2
240,1939,2092,2218,2
240,1877,2024,2220,2
240,1627,1774,2209,2
240,1627,1887,2203,2
240,1710,1975,2203,2
240,1699,1975,2205,2
240,1575,1966,2210,2
240,1368,1814,2198,2
240,1382,1922,2201,2
240,1239,1903,2217,2
240,1620,2014,2198,2
240,2076,2014,2195,2
240,2076,2358,2199,2
240,2255,2332,2192,2
240,1991,2322,2197,2
240,1608,2142,2210,2
240,1603,2097,2193,2
240,1603,2097,2186,2
240,1493,2046,2186,2
240,1354,2046,2185,2
240,1181,2018,2185,2
240,1398,2056,2182,2
240,1473,2126,2185,2
240,1338,2001,2187,2
240,987,1944,2187,2
240,1097,1944,2181,2
240,1097,1950,2179,2
240,1445,2100,2174,2
240,1875,2169,2185,2
240,2385,2363,2197,2
240,2167,2363,2188,2
240,2167,2224,2190,2
240,1508,2074,2190,2
240,1587,2113,2189,2
240,1611,2101,2189,2
240,1515,1911,2173,2
240,1544,1993,2178,2
240,1424,2047,2178,2
240,1733,2111,2178,2
240,1550,2111,2176,2
240,1283,2018,2176,2
240,1203,1856,2156,2
240,1346,1949,2161,2
240,1365,1973,2158,2
240,2046,1973,2158,2
240,2046,2232,2154,2
240,2703,2382,2154,2
240,2378,2363,2144,2
240,2026,2165,2153,2
240,1761,1913,2128,2
240,1816,1968,2132,2
240,1797,2046,2121,2
240,1359,1959,2121,2
240,1438,1959,2114,2
240,1469,1985,2123,2
240,1678,1990,2106,2
240,1586,2043,2107,2
240,1287,1885,2102,2
240,1047,1885,2102,2
240,1047,1865,2089,2
240,1412,1929,2089,2
240,1831,2013,2086,2
240,2266,2228,2091,2
240,2573,2363,2089,2
240,2309,2329,2081,2
240,1917,2086,2071,2
240,1430,2029,2071,2
240,1556,2029,2067,2
240,1602,1981,2058,2
240,1451,1811,2059,2
240,1572,1889,2052,2
240,1620,1925,2059,2
240,1638,1925,2059,2
240,1638,1913,2064,2
240,1217,1810,2064,2
240,1208,1886,2067,2
240,1125,1864,2058,2
240,1376,1963,2057,2
240,2207,2022,2058,2
240,2207,2256,2063,2
240,2430,2222,2063,2
240,2039,2222,2058,2
240,1622,1999,2048,2
240,1634,1957,2042,2
240,1674,1995,2044,2
240,1580,1933,2044,2
240,1402,1933,2026,2
240,1402,1866,2032,2
240,1676,1937,2032,2
240,1602,1964,2028,2
240,1412,1851,2034,2
240,1233,1609,2013,2
240,1250,1699,1995,2
240,1250,1786,1999,2
240,1771,1934,1999,2
240,2161,1968,1996,2
240,2601,2154,2016,2
240,2429,2059,1994,2
240,2118,2041,2004,2
240,1655,1859,2004,2
240,1670,1859,1983,2
240,1670,1896,1972,2
240,1435,1787,1972,2
240,1423,1841,1960,2
240,1366,1827,1974,2
240,1560,1918,1960,2
240,1375,1949,1961,2
240,1375,1799,1949,2
240,1057,1711,1949,2
240,1201,1791,1943,2
240,1275,1813,1950,2
240,1642,2046,1941,2
240,1940,2058,1941,2
240,2451,2241,1941,2
240,2147,2241,1952,2
240,2147,1987,1947,2
240,1715,1828,1958,2
240,1730,1881,1958,2
240,1723,1892,1950,2
240,1518,1645,1952,2
240,1517,1729,1957,2
240,1517,1837,1955,2
240,1773,1857,1955,2
240,1536,1922,1961,2
240,1224,1838,1950,2
240,1108,1684,1956,2
240,1297,1772,1951,2
240,1392,1896,1951,2
240,1853,1896,1964,2
240,1853,2186,1975,2
240,2276,2259,1962,2
240,2003,2212,1981,2
240,1673,1972,1976,2
240,1460,1838,1975,2
240,1538,1891,1968,2
240,1538,1890,1977,2
240,1192,1803,1977,2
240,1337,1851,1986,2
240,1422,1885,1987,2
240,1485,1791,1981,2
240,1445,1855,1989,2
240,1150,1754,1989,2
240,1124,1754,1967,2
240,1124,1742,1973,2
240,1376,1855,1949,2
240,1807,1893,1952,2
240,2296,2164,1979,2
240,2405,2168,1961,2
240,1964,2119,1953,2
240,1964,1860,1957,2
240,1727,1863,1957,2
240,1681,1886,1950,2
240,1539,1804,1965,2
240,1359,1687,1944,2
240,1506,1742,1955,2
240,1575,1847,1955,2
240,1463,1847,1948,2
240,1463,1724,1938,2
240,1225,1607,1941,2
240,1281,1689,1930,2
240,1247,1687,1938,2
240,1520,1893,1931,2
240,2049,1919,1933,2
240,2049,2161,1928,2
240,2031,2047,1928,2
240,1731,2017,1925,2
240,1362,1826,1925,2
240,1459,1815,1925,2
240,1513,1841,1919,2
240,1364,1748,1919,2
240,1327,1748,1932,2
240,1327,1764,1928,2
240,1529,1829,1948,2
240,1430,1878,1947,2
240,1211,1740,1929,2
240,1083,1526,1940,2
240,1193,1613,1944,2
240,1193,1732,1935,2
240,1891,1888,1935,2
240,2258,1923,1938,2
240,2696,2110,1928,2
240,2376,1928,1944,2
240,2056,1917,1934,2
240,1578,1748,1934,2
240,1631,1748,1936,2
240,1631,1814,1940,2
240,1322,1700,1940,2
240,1402,1742,1947,2
240,1437,1766,1934,2
240,1641,1778,1941,2
240,1385,1821,1936,2
240,1385,1681,1941,2
240,1148,1653,1941,2
240,1318,1706,1942,2
240,1437,1774,1930,2
240,1820,2038,1930,2
240,2065,2031,1934,2
240,2552,2110,1934,2
240,2137,2110,1916,2
240,2137,1822,1919,2
240,1542,1775,1919,2
240,1629,1779,1911,2
240,1663,1752,1913,2
240,1460,1609,1900,2
240,1547,1653,1892,2
240,1547,1743,1898,2
240,1625,1721,1898,2
240,1416,1738,1889,2
240,1116,1614,1890,2
240,1154,1574,1878,2
240,1365,1624,1879,2
240,1527,1754,1879,2
240,2003,1754,1869,2
240,2003,2031,1861,2
240,2154,1996,1871,2
240,1871,1940,1857,2
240,1518,1740,1848,2
240,1510,1718,1846,2
240,1513,1721,1840,2
240,1513,1654,1828,2
240,1254,1608,1828,2
240,1444,1647,1821,2
240,1596,1702,1817,2
240,1546,1584,1825,2
240,1465,1608,1813,2
240,1159,1513,1813,2
240,1220,1513,1816,2
240,1220,1578,1804,2
240,1548,1723,1822,2
240,1953,1744,1813,2
240,2450,2028,1797,2
240,2341,1921,1815,2
240,1870,1859,1813,2
240,1870,1612,1800,2
240,1773,1632,1800,2
240,1641,1655,1796,2
240,1442,1571,1768,2
240,1404,1552,1783,2
240,1543,1588,1768,2
240,1703,1690,1768,2
240,1489,1690,1769,2
240,1489,1529,1768,2
240,1142,1457,1768,2
240,1257,1495,1763,2
240,1335,1551,1742,2
240,1672,1838,1748,2
240,2181,1817,1740,2
240,2181,2001,1744,2
240,1873,1855,1744,2
240,1564,1776,1738,2
240,1211,1610,1720,2
240,1374,1646,1715,2
240,1366,1642,1711,2
240,1196,1515,1711,2
240,1334,1515,1687,2
240,1334,1586,1683,2
240,1770,1623,1683,2
240,1553,1613,1670,2
240,1263,1475,1662,2
240,1179,1386,1651,2
240,1342,1426,1635,2
240,1342,1547,1628,2
240,2084,1730,1628,2
240,2379,1706,1620,2
240,2785,1838,1624,2
240,2340,1660,1614,2
240,1974,1620,1608,2
240,1509,1540,1608,2
240,1596,1540,1588,2
240,1596,1561,1576,2
240,1372,1476,1577,2
240,1488,1500,1567,2
240,1625,1593,1564,2
240,1679,1562,1554,2
240,1372,1562,1545,2
240,1372,1424,1533,2
240,1249,1438,1533,2
240,1407,1483,1525,2
240,1610,1608,1523,2
240,1946,1913,1514,2
240,2053,1856,1510,2
240,2398,1829,1510,2
240,1960,1829,1502,2
240,1960,1570,1492,2
240,1806,1580,1478,2
240,1734,1585,1479,2
240,1652,1520,1474,2
240,1450,1453,1461,2
240,1620,1484,1446,2
240,1620,1620,1441,2
240,1478,1554,1441,2
240,1257,1551,1439,2
240,1017,1422,1430,2
240,1106,1448,1410,2
240,1271,1482,1408,2
240,1593,1652,1408,2
240,2051,1652,1388,2
240,2051,1923,1389,2
240,2029,1845,1358,2
240,1688,1752,1358,2
240,1354,1558,1370,2
240,1423,1609,1336,2
240,1351,1587,1313,2
240,1351,1463,1308,2
240,1319,1495,1308,2
240,1515,1495,1299,2
240,1794,1605,1315,2
240,1572,1454,1279,2
240,1121,1442,1284,2
240,1121,1357,1284,2
240,1235,1357,1252,2
240,1235,1456,1242,2
240,1624,1655,1215,2
240,1923,1622,1219,2
240,2451,1796,1247,2
240,2198,1607,1214,2
240,1712,1607,1191,2
240,1712,1365,1181,2
240,1679,1431,1181,2
240,1461,1437,1176,2
240,1252,1348,1186,2
240,1340,1477,1153,2
240,1340,1471,1134,2
240,1827,1500,1134,2
240,1503,1500,1136,2
240,1503,1300,1137,2
240,1308,1282,1111,2
240,1337,1310,1122,2
240,1486,1403,1147,2
240,2201,1540,1114,2
240,2480,1540,1106,2
240,2480,1792,1104,2
240,2076,1619,1071,2
240,1636,1536,1080,2
240,1302,1471,1101,2
240,1387,1495,1069,2
240,1387,1495,1050,2
240,1081,1418,1050,2
240,1298,1418,1050,2
240,1573,1455,1064,2
240,1623,1444,1019,2
240,1357,1406,1029,2
240,1101,1286,1031,2
240,1110,1300,1031,2
240,1311,1300,1014,2
240,1311,1485,1025,2
240,1758,1711,981,2
240,1950,1619,999,2
240,2308,1655,1042,2
240,1577,1655,999,2
240,1577,1397,977,2
240,1481,1398,977,2
240,1477,1398,978,2
240,1477,1349,986,2
240,1322,1337,951,2
240,1406,1320,954,2
240,1685,1443,1015,2
240,1476,1370,971,2
240,1206,1370,959,2
240,1206,1193,957,2
240,1218,1249,930,2
240,1378,1260,937,2
240,1733,1408,983,2
240,2488,1408,944,2
240,2488,1616,944,2
240,2260,1562,944,2
240,1787,1562,956,2
240,1415,1390,956,2
240,1449,1432,935,2
240,1334,1399,941,2
240,1272,1311,949,2
240,1333,1339,949,2
240,1577,1339,949,2
240,1577,1530,952,2
240,1384,1385,935,2
240,1159,1343,948,2
240,988,1263,967,2
240,1258,1263,944,2
240,1258,1317,950,2
240,1925,1466,950,2
240,2220,1466,969,2
240,2678,1628,987,2
240,2308,1535,957,2
240,1815,1446,969,2
240,1404,1290,996,2
240,1581,1327,973,2
240,1368,1327,969,2
240,1368,1198,978,2
240,1484,1315,946,2
240,1625,1291,962,2
240,1973,1383,991,2
240,1337,1383,974,2
240,1337,1201,965,2
240,1095,1186,965,2
240,1246,1186,965,2
240,1449,1277,984,2
240,1791,1563,950,2
240,1955,1473,963,2
240,2478,1648,1009,2
240,1819,1481,982,2
240,1428,1481,974,2
240,1428,1295,983,2
240,1519,1335,956,2
240,1310,1275,970,2
240,1148,1210,1003,2
240,1331,1368,976,2
240,1331,1368,980,2
240,1569,1317,980,2
240,1297,1317,989,2
240,1064,1204,989,2
240,1071,1208,982,2
240,1199,1187,980,2
240,1481,1312,1001,2
240,2280,1426,1001,2
240,2455,1426,1014,2
240,2455,1534,1014,2
240,1997,1358,1017,2
240,1712,1290,1016,2
240,1623,1298,1036,2
240,1619,1298,1027,2
240,1619,1250,1035,2
240,1328,1246,1035,2
240,1530,1246,1055,2
240,1811,1382,1060,2
240,1659,1305,1069,2
240,1388,1277,1074,2
240,1135,1176,1077,2
240,1265,1212,1079,2
240,1533,1212,1091,2
240,1533,1469,1095,2
240,1914,1678,1103,2
240,1959,1588,1116,2
240,2116,1558,1119,2
240,1731,1271,1127,2
240,1731,1271,1135,2
240,1733,1327,1135,2
240,1584,1327,1147,2
240,1440,1274,1156,2
240,1431,1354,1145,2
240,1550,1332,1164,2
240,1865,1489,1180,2
240,1440,1395,1180,2
240,1218,1395,1180,2
240,1218,1247,1192,2
240,1315,1323,1174,2
240,1555,1307,1194,2
240,1972,1496,1209,2
240,2672,1496,1209,2
240,2672,1658,1206,2
240,2177,1550,1206,2
240,1733,1550,1210,2
240,1342,1385,1222,2
240,1459,1456,1204,2
240,1354,1402,1211,2
240,1206,1306,1224,2
240,1515,1353,1224,2
240,1773,1353,1233,2
240,1773,1509,1244,2
240,1500,1360,1234,2
240,1338,1316,1234,2
240,1182,1276,1256,2
240,1472,1276,1239,2
240,1472,1363,1234,2
240,2155,1520,1234,2
240,2415,1520,1251,2
240,2817,1637,1253,2
240,2345,1479,1259,2
240,1904,1416,1253,2
240,1469,1337,1253,2
240,1636,1351,1253,2
240,1394,1351,1262,2
240,1193,1297,1259,2
240,1380,1395,1275,2
240,1527,1384,1273,2
240,1681,1378,1277,2
240,1155,1378,1281,2
240,1155,1247,1290,2
240,1136,1265,1290,2
240,1316,1282,1305,2
240,1554,1427,1303,2
240,1899,1734,1321,2
240,1998,1664,1323,2
240,2346,1622,1333,2
240,1613,1477,1333,2
240,1478,1477,1335,2
240,1455,1470,1330,2
240,1484,1417,1343,2
240,1331,1395,1342,2
240,1156,1337,1327,2
240,1513,1337,1347,2
240,1513,1426,1359,2
240,1381,1367,1359,2
240,1180,1334,1361,2
240,947,1245,1362,2
240,1054,1287,1357,2
240,1240,1296,1367,2
240,1537,1440,1376,2
240,2328,1603,1376,2
240,2264,1603,1379,2
240,2202,1543,1387,2
240,1785,1367,1379,2
240,1676,1334,1386,2
240,1630,1376,1386,2
240,1386,1376,1386,2
240,1386,1274,1380,2
240,1244,1287,1380,2
240,1400,1296,1374,2
240,1579,1397,1384,2
240,1398,1269,1382,2
240,1283,1266,1381,2
240,1025,1202,1378,2
240,1220,1256,1378,2
240,1499,1256,1385,2
240,1844,1457,1394,2
240,2116,1767,1397,2
240,1959,1684,1398,2
240,1821,1495,1398,2
240,1443,1495,1413,2
240,1443,1290,1408,2
240,1474,1329,1408,2
240,1319,1357,1411,2
240,1111,1268,1404,2
240,1146,1289,1420,2
240,1443,1320,1415,2
240,1443,1387,1419,2
240,1079,1297,1419,2
240,980,1297,1426,2
240,847,1264,1420,2
240,1035,1333,1441,2
240,1313,1366,1437,2
240,1758,1601,1448,2
240,2510,1601,1448,2
240,2510,1765,1461,2
240,1795,1594,1461,2
240,1474,1536,1471,2
240,1168,1454,1461,2
240,1275,1441,1475,2
240,1080,1443,1480,2
240,1080,1309,1486,2
240,1178,1340,1486,2
240,1263,1363,1491,2
240,1259,1344,1484,2
240,1107,1190,1491,2
240,1102,1241,1491,2
240,976,1278,1491,2
240,1163,1278,1485,2
240,1163,1399,1489,2
240,1667,1618,1485,2
240,1926,1581,1485,2
240,2155,1602,1490,2
240,1796,1394,1491,2
240,1582,1377,1489,2
240,1582,1362,1490,2
240,1426,1332,1490,2
240,1215,1343,1485,2
240,953,1249,1487,2
240,1056,1270,1489,2
240,1131,1305,1490,2
240,1050,1270,1490,2
240,888,1270,1491,2
240,888,1161,1486,2
240,942,1195,1498,2
240,1133,1252,1491,2
240,1301,1391,1486,2
240,1742,1787,1493,2
240,1787,1722,1504,2
240,1787,1568,1501,2
240,1263,1421,1501,2
240,1246,1406,1495,2
240,1196,1381,1488,2
240,1169,1261,1499,2
240,1135,1286,1494,2
240,928,1261,1494,2
240,996,1261,1513,2
240,996,1315,1513,2
240,909,1233,1530,2
240,848,1282,1524,2
240,669,1197,1508,2
240,813,1215,1524,2
240,1127,1279,1528,2
240,1127,1495,1530,2
240,2083,1686,1530,2
240,1906,1649,1535,2
240,1715,1537,1528,2
240,1432,1336,1543,2
240,1411,1357,1538,2
240,1338,1392,1538,2
240,1155,1392,1539,2
240,1155,1284,1546,2
240,1043,1274,1546,2
240,1125,1327,1551,2
240,1152,1307,1549,2
240,1030,1139,1554,2
240,886,1220,1555,2
240,886,1233,1561,2
240,1101,1309,1561,2
240,1415,1369,1561,2
240,1785,1566,1572,2
240,2176,1867,1571,2
240,1953,1811,1579,2
240,1682,1596,1579,2
240,1345,1596,1579,2
240,1345,1466,1575,2
240,1336,1449,1579,2
240,1197,1481,1576,2
240,952,1356,1580,2
240,989,1300,1582,2
240,1045,1370,1593,2
240,1045,1388,1592,2
240,839,1316,1592,2
240,828,1388,1592,2
240,733,1359,1595,2
240,943,1413,1598,2
240,1777,1473,1598,2
240,1777,1744,1598,2
240,2047,1744,1619,2
240,2047,1781,1622,2
240,1722,1615,1632,2
240,1541,1612,1634,2
240,1376,1573,1628,2
240,1364,1447,1634,2
240,1121,1493,1642,2
240,1121,1409,1645,2
240,1146,1434,1645,2
240,1141,1500,1652,2
240,1028,1443,1647,2
240,905,1263,1656,2
240,952,1355,1655,2
240,952,1431,1655,2
240,1156,1431,1663,2
240,1156,1596,1672,2
240,1704,1830,1668,2
240,1805,1810,1679,2
240,1852,1753,1681,2
240,1570,1493,1685,2
240,1473,1519,1683,2
240,1473,1546,1690,2
240,1271,1491,1690,2
240,1140,1526,1693,2
240,955,1478,1696,2
240,1075,1492,1696,2
240,1018,1541,1704,2
240,1018,1468,1704,2
240,881,1468,1694,2
240,881,1349,1694,2
240,980,1397,1690,2
240,1247,1465,1687,2
240,1541,1641,1701,2
240,1965,2042,1697,2
240,1841,1975,1698,2
240,1841,1743,1699,2
240,1292,1584,1699,2
240,1347,1587,1691,2
240,1361,1574,1701,2
240,1244,1416,1700,2
240,1157,1458,1704,2
240,1157,1483,1704,2
240,1289,1483,1718,2
240,1289,1537,1711,2
240,1153,1422,1732,2
240,1072,1486,1725,2
240,864,1428,1715,2
240,1037,1461,1726,2
240,1490,1521,1736,2
240,1490,1786,1734,2
240,2352,1921,1734,2
240,2057,1886,1739,2
240,1747,1760,1730,2
240,1431,1558,1749,2
240,1494,1580,1740,2
240,1487,1618,1740,2
240,1258,1618,1765,2
240,1258,1481,1771,2
240,1267,1505,1785,2
240,1371,1575,1794,2
240,1354,1523,1779,2
240,1192,1316,1799,2
240,1056,1419,1805,2
240,1056,1474,1810,2
240,1335,1561,1810,2
240,1723,1625,1821,2
240,2156,1841,1817,2
240,2319,1963,1834,2
240,2058,1939,1834,2
240,1697,1745,1834,2
240,1530,1745,1831,2
240,1530,1698,1843,2
240,1501,1661,1829,2
240,1333,1686,1837,2
240,1052,1587,1843,2
240,1182,1594,1844,2
240,1184,1657,1847,2
240,1184,1616,1859,2
240,933,1546,1859,2
240,1007,1602,1859,2
240,992,1604,1869,2
240,1241,1714,1860,2
240,1609,1756,1875,2
240,2124,1991,1875,2
240,2150,1991,1873,2
240,2150,1897,1870,2
240,1551,1732,1870,2
240,1550,1748,1861,2
240,1495,1732,1877,2
240,1439,1585,1867,2
240,1254,1638,1871,2
240,1254,1638,1867,2
240,1474,1698,1867,2
240,1393,1755,1863,2
240,1203,1661,1876,2
240,1092,1488,1872,2
240,1239,1571,1874,2
240,1220,1676,1874,2
240,1531,1676,1888,2
240,1531,1915,1886,2
240,2346,2094,1886,2
240,2187,2081,1893,2
240,1988,1931,1889,2
240,1649,1650,1901,2
240,1626,1698,1912,2
240,1626,1782,1909,2
240,1316,1703,1909,2
240,1296,1703,1911,2
240,1248,1704,1904,2
240,1444,1768,1921,2
240,1433,1825,1915,2
240,1205,1736,1915,2
240,1052,1736,1936,2
240,1052,1670,1941,2
240,1317,1725,1941,2
240,1668,1796,1953,2
240,2057,2026,1950,2
240,2402,2303,1965,2
240,2072,2255,1970,2
240,2072,1992,1974,2
240,1380,1876,1974,2
240,1487,1887,1982,2
240,1546,1890,1971,2
240,1391,1689,1976,2
240,1468,1754,1976,2
240,1454,1826,1976,2
240,1567,1826,1968,2
240,1567,1813,1980,2
240,1219,1708,1980,2
240,1185,1750,1979,2
240,1066,1694,1982,2
240,1283,1772,1970,2
240,2077,1827,1983,2
240,2077,2071,1990,2
240,2641,2123,1990,2
240,2227,2123,1987,2
240,1804,1953,1995,2
240,1625,1870,1977,2
240,1694,1882,1987,2
240,1683,1854,1987,2
240,1407,1854,1973,2
240,1407,1722,1967,2
240,1583,1781,1967,2
240,1594,1834,1959,2
240,1482,1758,1971,2
240,1283,1550,1964,2
240,1282,1631,1965,2
240,1282,1712,1959,2
240,1657,1814,1959,2
240,2064,1814,1971,2
240,2498,2046,1984,2
240,2494,2044,1981,2
240,2174,2023,1978,2
240,1732,1858,1978,2
240,1686,1858,1986,2
240,1686,1884,1979,2
240,1530,1808,1979,2
240,1402,1868,1982,2
240,1236,1808,1978,2
240,1435,1871,1989,2
240,1501,1919,1984,2
240,1355,1837,1984,2
240,1013,1755,1984,2
240,1147,1755,1990,2
240,1210,1790,1986,2
240,1536,1963,2000,2
240,1904,2011,1999,2
240,2408,2217,2009,2
240,2137,2217,2009,2
240,2137,2062,2020,2
240,1480,1907,2020,2
240,1561,1942,2034,2
240,1598,1954,2029,2
240,1467,1768,2034,2
240,1507,1847,2038,2
240,1435,1922,2047,2
240,1793,1995,2047,2
240,1584,1995,2051,2
240,1308,1905,2046,2
240,1190,1757,2042,2
240,1344,1845,2048,2
240,1405,1885,2048,2
240,2101,1885,2050,2
240,2101,2151,2058,2
240,2725,2305,2058,2
240,2380,2264,2055,2
240,2022,2112,2066,2
240,1698,1887,2044,2
240,1760,1928,2056,2
240,1770,1998,2054,2
240,1339,1920,2054,2
240,1450,1920,2053,2
240,1519,1960,2066,2
240,1726,1972,2042,2
240,1603,2014,2052,2
240,1300,1867,2070,2
240,1118,1867,2054,2
240,1118,1862,2043,2
240,1494,1936,2043,2
240,1908,1998,2036,2
240,2345,2210,2055,2
240,2575,2333,2040,2
240,2296,2291,2043,2
240,1902,2060,2034,2
240,1493,2024,2034,2
240,1616,2024,2037,2
240,1648,1994,2041,2
240,1450,1846,2029,2
240,1593,1908,2035,2
240,1680,1963,2063,2
240,1677,1963,2044,2
240,1677,1946,2040,2
240,1233,1843,2040,2
240,1266,1925,2043,2
240,1241,1918,2043,2
240,1497,2031,2044,2
240,1834,2080,2045,2
240,2324,2292,2048,2
240,2480,2251,2048,2
240,2062,2251,2057,2
240,1638,2087,2050,2
240,1646,2045,2051,2
240,1687,2078,2056,2
240,1601,1979,2062,2
240,1318,1979,2054,2
240,1318,1972,2063,2
240,1738,2053,2063,2
240,1649,2088,2070,2
240,1463,1985,2069,2
240,1306,1772,2061,2
240,1421,1856,2066,2
240,1411,1945,2068,2
240,1960,2077,2068,2
240,2335,2077,2069,2
240,2745,2242,2077,2
240,2544,2151,2062,2
240,2166,2145,2076,2
240,1688,1960,2075,2
240,1752,1960,2067,2
240,1752,2020,2062,2
240,1474,1931,2062,2
240,1500,1974,2056,2
240,1513,1991,2068,2
240,1752,2105,2053,2
240,1697,2123,2059,2
240,1446,1968,2052,2
240,1136,1902,2052,2
240,1308,1902,2052,2
240,1420,1945,2058,2
240,1819,2155,2044,2
240,2152,2170,2052,2
240,2624,2349,2077,2
240,2097,2349,2062,2
240,2097,2113,2055,2
240,1428,1986,2055,2
240,1581,2017,2051,2
240,1681,2026,2053,2
240,1554,1836,2046,2
240,1658,1899,2047,2
240,1718,2013,2047,2
240,2052,2034,2047,2
240,1737,2034,2050,2
240,1388,1932,2049,2
240,1302,1848,2046,2
240,1477,1920,2051,2
240,1585,1978,2062,2
240,2359,1978,2053,2
240,2359,2243,2059,2
240,2841,2303,2059,2
240,2404,2303,2073,2
240,1969,2129,2072,2
240,1698,2026,2066,2
240,1781,2058,2069,2
240,1820,2053,2069,2
240,1374,1985,2069,2
240,1573,1985,2075,2
240,1738,2053,2079,2
240,1780,1989,2071,2
240,1621,2035,2079,2
240,1288,1885,2086,2
240,1277,1885,2079,2
240,1277,1933,2079,2
240,1738,2046,2079,2
240,2133,2085,2076,2
240,2568,2263,2093,2
240,2597,2273,2075,2
240,2285,2246,2085,2
240,1843,2034,2079,2
240,1765,2050,2079,2
240,1742,2050,2077,2
240,1625,1992,2084,2
240,1510,1931,2064,2
240,1699,1983,2078,2
240,1875,2075,2100,2
240,1635,2075,2083,2
240,1635,1971,2071,2
240,1216,1874,2071,2
240,1334,1947,2065,2
240,1382,1951,2070,2
240,1706,2138,2062,2
240,2014,2164,2063,2
240,2498,2346,2059,2
240,2329,2253,2059,2
240,1930,2253,2069,2
240,1509,2080,2066,2
240,1623,2070,2064,2
240,1625,2100,2061,2
240,1464,1965,2079,2
240,1507,1965,2068,2
240,1507,2042,2075,2
240,1995,2131,2075,2
240,1778,2159,2085,2
240,1487,2023,2082,2
240,1345,1837,2084,2
240,1489,1917,2086,2
240,1542,2020,2088,2
240,2217,2163,2088,2
240,2540,2163,2096,2
240,2918,2287,2099,2
240,2549,2129,2101,2
240,2159,2138,2102,2
240,1653,1957,2095,2
240,1800,1957,2095,2
240,1800,2047,2103,2
240,1420,1956,2103,2
240,1576,1997,2105,2
240,1703,2055,2115,2
240,1944,2084,2102,2
240,1814,2112,2114,2
240,1481,1961,2113,2
240,1255,1939,2113,2
240,1439,1939,2107,2
240,1571,2011,2116,2
240,1958,2251,2096,2
240,2241,2252,2109,2
240,2698,2332,2109,2
240,2267,2332,2093,2
240,2267,2073,2088,2
240,1690,2036,2088,2
240,1786,2064,2080,2
240,1813,2023,2094,2
240,1587,1860,2073,2
240,1743,1916,2080,2
240,1877,2060,2073,2
240,1912,2030,2073,2
240,1626,2030,2077,2
240,1282,1910,2081,2
240,1308,1870,2064,2
240,1526,1937,2062,2
240,1718,2043,2072,2
240,2511,2043,2072,2
240,2511,2311,2065,2
240,2643,2286,2065,2
240,2226,2268,2064,2
240,1785,2077,2059,2
240,1755,2045,2055,2
240,1800,2079,2049,2
240,1722,2020,2040,2
240,1450,1996,2040,2
240,1693,1996,2045,2
240,1920,2102,2043,2
240,1821,1967,2045,2
240,1646,2019,2039,2
240,1303,1868,2050,2
240,1404,1868,2035,2
240,1404,1972,2041,2
240,1988,2120,2041,2
240,2330,2157,2054,2
240,2745,2374,2060,2
240,2589,2266,2056,2
240,2236,2250,2058,2
240,1759,2042,2055,2
240,1829,2077,2055,2
240,1691,2077,2050,2
240,1484,2006,2045,2
240,1534,2015,2033,2
240,1751,2073,2051,2
240,2021,2186,2058,2
240,1573,2186,2047,2
240,1573,2007,2044,2
240,1212,1937,2044,2
240,1365,1981,2034,2
240,1468,2008,2046,2
240,1814,2237,2010,2
240,2086,2242,2029,2
240,2573,2390,2026,2
240,2141,2268,2026,2
240,1759,2268,2021,2
240,1355,2105,2034,2
240,1541,2117,1997,2
240,1500,2125,2018,2
240,1296,1986,2044,2
240,1632,1986,2022,2
240,1632,2081,2010,2
240,2124,2102,2010,2
240,1827,2123,1999,2
240,1473,1967,2015,2
240,1369,1852,1990,2
240,1528,1915,1995,2
240,1623,2032,1985,2
240,2368,2172,1985,2
240,2661,2172,2006,2
240,3001,2263,2020,2
240,2545,2079,2004,2
240,2132,2083,2006,2
240,1676,2008,2044,2
240,1841,2008,2014,2
240,1841,2036,2009,2
240,1412,1958,2009,2
240,1636,1958,2021,2
240,1846,2057,2023,2
240,1898,2000,2021,2
240,1744,2051,2020,2
240,1397,1944,2016,2
240,1338,1951,2016,2
240,1555,1951,2022,2
240,1787,2065,2022,2
240,2180,2289,2025,2
240,2380,2298,2040,2
240,2643,2318,2055,2
240,1843,2318,2040,2
240,1843,2084,2044,2
240,1769,2102,2044,2
240,1769,2132,2055,2
240,1685,2043,2053,2
240,1605,1978,2045,2
240,1794,2046,2053,2
240,2046,2208,2059,2
240,1827,2143,2059,2
240,1547,2143,2057,2
240,1233,2041,2056,2
240,1345,2020,2040,2
240,1624,2078,2063,2
240,1954,2217,2077,2
240,2694,2217,2069,2
240,2694,2415,2070,2
240,2550,2352,2070,2
240,2122,2352,2071,2
240,1675,2146,2083,2
240,1778,2157,2046,2
240,1765,2167,2062,2
240,1607,2049,2056,2
240,1677,2101,2056,2
240,2000,2101,2056,2
240,2341,2227,2075,2
240,2065,2061,2040,2
240,1824,2077,2050,2
240,1471,1962,2079,2
240,1623,1962,2051,2
240,1623,2044,2035,2
240,2270,2196,2035,2
240,2555,2215,2027,2
240,2931,2369,2048,2
240,2646,2220,2024,2
240,2275,2196,2026,2
240,1763,2006,2012,2
240,1931,2051,2012,2
240,1717,2051,2018,2
240,1446,1972,2023,2
240,1690,2096,2007,2
240,1994,2131,2008,2
240,2421,2218,2051,2
240,1730,2218,2022,2
240,1730,2022,2015,2
240,1449,1981,2015,2
240,1596,2048,2018,2
240,1724,2107,2021,2
240,2084,2338,2016,2
240,2282,2332,2019,2
240,2732,2432,2017,2
240,2136,2277,2017,2
240,1750,2277,2021,2
240,1487,2205,2017,2
240,1664,2172,2013,2
240,1568,2186,2018,2
240,1362,2058,2034,2
240,2031,2058,2017,2
240,2031,2248,2025,2
240,2206,2215,2025,2
240,1869,2208,2031,2
240,1497,2058,2031,2
240,1505,1999,2015,2
240,1655,2054,2024,2
240,1854,2191,2025,2
240,2571,2323,2025,2
240,2767,2323,2030,2
240,2940,2353,2036,2
240,2460,2139,2014,2
240,2191,2142,2027,2
240,2019,2151,2042,2
240,1949,2151,2024,2
240,1949,2080,2019,2
240,1695,2090,2019,2
240,2020,2112,2011,2
240,2387,2287,2033,2
240,2234,2153,2002,2
240,1975,2150,2014,2
240,1582,2005,2004,2
240,1621,2034,2004,2
240,1895,2034,2005,2
240,2202,2161,2022,2
240,2507,2388,1993,2
240,2525,2358,2020,2
240,2625,2345,2055,2
240,1802,2345,2025,2
240,1802,2069,2010,2
240,1959,2104,2010,2
240,1848,2134,2001,2
240,1663,2031,2009,2
240,1746,2115,1987,2
240,1998,2141,1995,2
240,2413,2315,1991,2
240,1908,2184,1991,2
240,1634,2184,1997,2
240,1371,2081,2001,2
240,1512,2081,1985,2
240,1815,2109,1996,2
240,2209,2262,2035,2
240,2859,2262,2011,2
240,2859,2444,2011,2
240,2464,2322,2011,2
240,2028,2322,2025,2
240,1578,2136,2026,2
240,1732,2151,2016,2
240,1685,2172,2018,2
240,1477,2049,2016,2
240,1944,2141,2016,2
240,2290,2141,2028,2
240,2647,2223,2032,2
240,2242,2029,2022,2
240,1975,2063,2029,2
240,1668,1991,2045,2
240,1813,1991,2029,2
240,1813,2100,2030,2
240,2453,2259,2030,2
240,2694,2257,2028,2
240,3040,2349,2042,2
240,2641,2158,2022,2
240,2239,2153,2032,2
240,1755,2090,2027,2
240,1946,2113,2027,2
240,1701,2113,2023,2
240,1466,2052,2032,2
240,1793,2198,2008,2
240,2033,2210,2024,2
240,2241,2202,2047,2
240,1569,2202,2027,2
240,1569,2009,2015,2
240,1511,2004,2015,2
240,1695,2051,2013,2
240,1908,2143,2026,2
240,2289,2388,2004,2
240,2430,2360,2013,2
240,2750,2361,2007,2
240,1991,2202,2007,2
240,1862,2202,2010,2
240,1829,2187,2015,2
240,1860,2109,1997,2
240,1742,2124,2004,2
240,1569,2075,2038,2
240,2215,2075,2015,2
240,2215,2270,2013,2
240,2023,2176,2013,2
240,1724,2177,2013,2
240,1385,2034,2015,2
240,1473,2007,2000,2
240,1694,2055,2006,2
240,2000,2222,2005,2
240,2680,2344,2005,2
240,2670,2344,2017,2
240,2659,2301,2022,2
