Group ID,Avg Short,Avg Long1,Avg Long2,Emitter
1,2045,2063,2059,2
1,2039,2057,2054,1
1,2056,2073,2070,2
241,2064,2084,2078,1
241,2065,2084,2078,1
241,2065,2084,2080,1
241,2066,2084,2081,1
241,2067,2085,2081,1
241,2067,2085,2082,1
241,2067,2085,2082,1
241,2067,2085,2082,1
241,2066,2084,2082,1
241,2066,2084,2081,1
241,2066,2086,2082,1
241,2069,2087,2083,1
241,2071,2090,2085,1
241,2071,2090,2086,1
241,2071,2090,2087,1
241,2068,2090,2083,1
241,2068,2083,2080,1
241,2065,2083,2078,1
241,2066,2083,2079,1
241,2066,2084,2080,1
241,2066,2083,2081,1
241,2066,2084,2082,1
241,2067,2085,2082,1
241,2067,2085,2083,1
241,2067,2084,2082,1
241,2066,2083,2081,1
241,2067,2083,2082,1
241,2068,2085,2084,1
241,2071,2087,2085,1
241,2072,2087,2086,1
241,2072,2089,2086,1
241,2071,2088,2086,1
241,2068,2088,2083,1
241,2065,2085,2081,1
241,2064,2083,2079,1
241,2066,2083,2080,1
241,2066,2085,2080,1
241,2066,2085,2081,1
241,2066,2085,2081,1
241,2066,2085,2082,1
241,2066,2086,2082,1
241,2066,2085,2082,1
241,2066,2084,2081,1
241,2067,2085,2083,1
241,2067,2089,2085,1
241,2071,2089,2085,1
241,2072,2091,2086,1
241,2072,2091,2086,1
241,2071,2088,2086,1
241,2068,2087,2083,1
241,2065,2083,2083,1
241,2065,2083,2080,1
241,2065,2084,2081,1
241,2066,2084,2081,1
241,2066,2085,2081,1
241,2066,2085,2082,1
241,2067,2085,2083,1
241,2067,2086,2083,1
241,2067,2084,2081,1
241,2066,2085,2081,1
241,2068,2085,2083,1
241,2069,2087,2085,1
241,2071,2088,2086,1
241,2073,2090,2087,1
241,2073,2090,2086,1
241,2069,2090,2086,1
241,2069,2085,2082,1
241,2064,2083,2082,1
241,2064,2083,2081,1
241,2065,2083,2082,1
241,2066,2083,2082,1
241,2067,2084,2082,1
241,2067,2086,2083,1
241,2068,2086,2083,1
241,2068,2086,2083,1
241,2067,2085,2082,1
241,2067,2086,2082,1
241,2069,2087,2083,1
241,2070,2088,2085,1
241,2072,2088,2086,1
241,2072,2091,2087,1
241,2072,2090,2087,1
241,2070,2090,2084,1
241,2067,2086,2081,1
241,2065,2083,2078,1
241,2066,2083,2079,1
241,2067,2085,2080,1
241,2067,2085,2080,1
241,2068,2085,2081,1
241,2068,2086,2082,1
241,2068,2085,2082,1
241,2068,2085,2082,1
241,2066,2084,2082,1
241,2068,2084,2082,1
241,2068,2087,2084,1
241,2071,2088,2084,1
241,2072,2088,2087,1
241,2072,2089,2088,1
241,2072,2087,2088,1
241,2070,2087,2085,1
241,2067,2084,2080,1
241,2064,2083,2080,1
241,2066,2083,2081,1
241,2066,2085,2081,1
241,2066,2085,2081,1
241,2067,2086,2082,1
241,2067,2086,2083,1
241,2067,2085,2083,1
241,2067,2085,2081,1
241,2066,2085,2081,1
241,2067,2085,2083,1
241,2068,2087,2085,1
241,2070,2088,2086,1
241,2072,2090,2087,1
241,2072,2090,2088,1
241,2070,2088,2088,1
241,2067,2088,2082,1
241,2067,2082,2080,1
241,2066,2082,2079,1
241,2067,2083,2080,1
241,2067,2083,2081,1
241,2067,2083,2081,1
241,2067,2084,2082,1
241,2069,2085,2082,1
241,2069,2085,2082,1
241,2069,2083,2081,1
241,2069,2084,2080,1
241,2070,2086,2082,1
241,2070,2087,2085,1
241,2072,2089,2086,1
241,2073,2089,2087,1
241,2073,2090,2086,1
241,2070,2087,2086,1
241,2067,2086,2083,1
241,2064,2084,2081,1
241,2064,2084,2080,1
241,2066,2085,2081,1
241,2066,2085,2081,1
241,2067,2085,2082,1
241,2067,2087,2083,1
241,2068,2087,2083,1
241,2068,2087,2083,1
241,2067,2086,2082,1
241,2067,2086,2082,1
241,2069,2087,2085,1
241,2069,2090,2086,1
241,2072,2090,2086,1
241,2072,2092,2087,1
241,2072,2091,2086,1
241,2070,2086,2084,1
241,2068,2084,2081,1
241,2066,2082,2081,1
241,2066,2082,2081,1
241,2066,2084,2082,1
241,2067,2084,2082,1
241,2068,2085,2082,1
241,2068,2085,2082,1
241,2068,2084,2082,1
241,2067,2085,2081,1
241,2067,2084,2081,1
241,2068,2086,2081,1
241,2070,2086,2085,1
241,2071,2088,2087,1
241,2072,2089,2087,1
241,2073,2090,2087,1
241,2073,2088,2087,1
241,2069,2088,2083,1
241,2069,2082,2080,1
241,2065,2082,2080,1
241,2066,2083,2080,1
241,2066,2083,2081,1
241,2066,2083,2081,1
241,2068,2084,2081,1
241,2068,2086,2081,1
241,2068,2085,2081,1
241,2067,2085,2081,1
241,2066,2085,2082,1
241,2068,2086,2082,1
241,2070,2089,2083,1
241,2071,2090,2087,1
241,2072,2090,2087,1
241,2072,2091,2087,1
241,2071,2088,2087,1
241,2068,2087,2084,1
241,2065,2084,2081,1
241,2064,2083,2079,1
241,2066,2084,2080,1
241,2066,2085,2080,1
241,2067,2085,2080,1
241,2068,2085,2082,1
241,2068,2085,2082,1
241,2068,2084,2082,1
241,2068,2085,2081,1
241,2067,2084,2082,1
241,2069,2084,2083,1
241,2069,2088,2085,1
241,2072,2090,2085,1
241,2073,2090,2087,1
241,2073,2090,2087,1
241,2071,2087,2087,1
241,2068,2086,2084,1
241,2065,2083,2080,1
241,2065,2084,2080,1
241,2066,2084,2082,1
241,2066,2085,2082,1
241,2067,2085,2082,1
241,2069,2086,2083,1
241,2069,2086,2083,1
241,2069,2084,2083,1
241,2069,2084,2081,1
241,2068,2085,2081,1
241,2070,2085,2083,1
241,2071,2087,2085,1
241,2072,2088,2086,1
241,2073,2090,2087,1
241,2073,2090,2087,1
241,2068,2087,2086,1
241,2065,2087,2080,1
241,2065,2083,2080,1
241,2066,2084,2080,1
241,2067,2086,2081,1
241,2067,2085,2081,1
241,2067,2085,2081,1
241,2067,2086,2083,1
241,2067,2086,2083,1
241,2066,2086,2082,1
241,2066,2084,2082,1
241,2067,2084,2082,1
241,2070,2086,2084,1
241,2071,2088,2086,1
241,2072,2090,2087,1
241,2072,2090,2088,1
241,2072,2089,2086,1
241,2068,2086,2086,1
241,2066,2084,2083,1
241,2064,2082,2082,1
241,2065,2083,2082,1
241,2066,2085,2082,1
241,2066,2085,2082,1
241,2067,2085,2082,1
241,2067,2086,2083,1
241,2067,2086,2083,1
241,2067,2086,2082,1
241,2066,2084,2082,1
241,2067,2084,2082,1
241,2069,2086,2085,1
241,2069,2090,2086,1
241,2073,2090,2086,1
241,2073,2091,2086,1
241,2072,2089,2084,1
241,2069,2085,2082,1
241,2068,2083,2080,1
241,2066,2084,2080,1
241,2067,2084,2082,1
241,2067,2085,2082,1
241,2067,2085,2082,1
241,2068,2086,2082,1
241,2068,2086,2082,1
241,2068,2085,2082,1
241,2067,2085,2081,1
241,2067,2085,2082,1
241,2070,2087,2082,1
241,2072,2087,2085,1
241,2072,2088,2086,1
241,2073,2088,2087,1
241,2073,2090,2087,1
241,2071,2087,2087,1
241,2068,2087,2081,1
241,2068,2082,2080,1
241,2067,2083,2080,1
241,2068,2085,2081,1
241,2068,2085,2082,1
241,2068,2085,2082,1
241,2069,2086,2083,1
241,2069,2087,2083,1
241,2068,2086,2083,1
241,2067,2086,2081,1
241,2066,2086,2083,1
241,2068,2087,2083,1
241,2071,2089,2085,1
241,2072,2089,2087,1
241,2073,2089,2087,1
241,2073,2089,2086,1
241,2069,2086,2086,1
241,2066,2086,2080,1
241,2064,2084,2080,1
241,2065,2084,2080,1
241,2066,2085,2081,1
241,2066,2085,2082,1
241,2067,2086,2082,1
241,2068,2086,2083,1
241,2068,2086,2083,1
241,2067,2085,2082,1
241,2067,2085,2082,1
241,2067,2086,2083,1
241,2070,2089,2084,1
241,2070,2089,2087,1
241,2072,2091,2087,1
241,2073,2091,2088,1
241,2073,2089,2086,1
241,2070,2086,2084,1
241,2068,2084,2082,1
241,2066,2083,2082,1
241,2067,2084,2082,1
241,2068,2084,2082,1
241,2068,2085,2082,1
241,2068,2086,2082,1
241,2068,2087,2083,1
241,2068,2086,2083,1
241,2067,2084,2082,1
241,2067,2084,2082,1
241,2068,2086,2082,1
241,2070,2086,2085,1
241,2070,2089,2087,1
241,2072,2090,2087,1
241,2072,2091,2087,1
241,2071,2089,2085,1
241,2068,2083,2083,1
241,2066,2083,2079,1
241,2066,2083,2080,1
241,2068,2084,2080,1
241,2068,2085,2081,1
241,2068,2085,2082,1
241,2069,2085,2082,1
241,2068,2087,2083,1
241,2068,2086,2082,1
241,2067,2086,2082,1
241,2067,2086,2083,1
241,2069,2087,2083,1
241,2072,2089,2085,1
241,2072,2089,2087,1
241,2073,2091,2087,1
241,2072,2091,2086,1
241,2072,2087,2083,1
241,2066,2084,2083,1
241,2065,2083,2081,1
241,2065,2083,2082,1
241,2066,2083,2082,1
241,2067,2084,2082,1
241,2067,2086,2082,1
241,2068,2086,2083,1
241,2068,2087,2083,1
241,2068,2086,2083,1
241,2068,2086,2082,1
241,2067,2085,2083,1
241,2068,2086,2084,1
241,2071,2088,2087,1
241,2071,2090,2088,1
241,2073,2090,2088,1
241,2071,2090,2087,1
241,2069,2087,2084,1
241,2067,2084,2081,1
241,2067,2083,2080,1
241,2066,2084,2081,1
241,2067,2084,2081,1
241,2067,2085,2081,1
241,2068,2085,2081,1
241,2068,2087,2082,1
241,2068,2087,2082,1
241,2067,2085,2082,1
241,2068,2085,2082,1
241,2068,2087,2083,1
241,2071,2089,2083,1
241,2072,2089,2087,1
241,2073,2090,2088,1
241,2074,2090,2088,1
241,2072,2090,2086,1
241,2070,2087,2083,1
241,2065,2087,2080,1
241,2065,2084,2080,1
241,2066,2085,2080,1
241,2067,2085,2081,1
241,2067,2085,2081,1
241,2068,2085,2081,1
241,2069,2087,2082,1
241,2069,2087,2082,1
241,2066,2086,2082,1
241,2067,2086,2082,1
241,2067,2088,2084,1
241,2069,2089,2085,1
241,2071,2091,2087,1
241,2072,2091,2088,1
241,2072,2091,2088,1
241,2072,2089,2086,1
241,2066,2086,2086,1
241,2065,2086,2080,1
241,2064,2085,2080,1
241,2066,2085,2080,1
241,2067,2086,2081,1
241,2067,2086,2082,1
241,2069,2087,2082,1
241,2069,2087,2083,1
241,2069,2086,2083,1
241,2067,2085,2082,1
241,2068,2085,2083,1
241,2068,2087,2085,1
241,2070,2089,2086,1
241,2070,2089,2088,1
241,2073,2090,2088,1
241,2072,2090,2088,1
241,2071,2088,2085,1
241,2068,2084,2082,1
241,2067,2083,2080,1
241,2066,2083,2081,1
241,2068,2084,2081,1
241,2068,2084,2081,1
241,2068,2085,2082,1
241,2069,2085,2082,1
241,2069,2086,2082,1
241,2068,2086,2082,1
241,2067,2085,2081,1
241,2067,2085,2083,1
241,2069,2087,2083,1
241,2071,2087,2086,1
241,2071,2090,2087,1
241,2072,2090,2088,1
241,2071,2091,2087,1
241,2070,2088,2084,1
241,2067,2082,2081,1
241,2067,2082,2079,1
241,2067,2084,2080,1
241,2068,2084,2080,1
241,2068,2086,2081,1
241,2068,2086,2082,1
241,2069,2085,2083,1
241,2068,2086,2083,1
241,2068,2085,2083,1
241,2068,2085,2082,1
241,2068,2087,2083,1
241,2070,2088,2084,1
241,2072,2090,2086,1
241,2073,2091,2087,1
241,2074,2091,2088,1
241,2071,2091,2085,1
241,2071,2086,2082,1
241,2065,2084,2082,1
241,2066,2084,2081,1
241,2066,2084,2082,1
241,2067,2084,2082,1
241,2068,2085,2082,1
241,2068,2087,2082,1
241,2068,2087,2083,1
241,2068,2086,2082,1
241,2068,2085,2082,1
241,2068,2085,2082,1
241,2068,2086,2084,1
241,2071,2087,2084,1
241,2072,2089,2086,1
241,2072,2091,2087,1
241,2073,2090,2087,1
241,2070,2089,2085,1
241,2067,2086,2082,1
241,2066,2084,2079,1
241,2067,2084,2079,1
241,2067,2085,2079,1
241,2067,2085,2081,1
241,2067,2086,2082,1
241,2069,2086,2082,1
241,2069,2087,2083,1
241,2068,2086,2083,1
241,2067,2084,2082,1
241,2068,2084,2082,1
241,2068,2087,2084,1
241,2072,2088,2084,1
241,2073,2091,2086,1
241,2073,2091,2087,1
241,2073,2089,2087,1
241,2070,2088,2084,1
241,2067,2084,2084,1
241,2066,2084,2080,1
241,2066,2084,2081,1
241,2067,2084,2081,1
241,2068,2085,2082,1
241,2068,2085,2083,1
241,2069,2085,2083,1
241,2069,2086,2083,1
241,2069,2085,2082,1
241,2066,2085,2082,1
241,2068,2085,2083,1
241,2069,2087,2085,1
241,2071,2088,2086,1
241,2073,2090,2087,1
241,2073,2090,2087,1
241,2071,2090,2087,1
241,2071,2087,2084,1
241,2065,2084,2084,1
241,2065,2084,2081,1
241,2065,2084,2081,1
241,2067,2084,2082,1
241,2068,2085,2082,1
241,2068,2086,2083,1
241,2069,2086,2083,1
241,2069,2086,2083,1
241,2068,2085,2082,1
241,2068,2085,2081,1
241,2070,2086,2082,1
241,2071,2088,2085,1
241,2073,2088,2086,1
241,2073,2091,2087,1
241,2074,2090,2087,1
241,2072,2090,2086,1
241,2070,2087,2083,1
241,2068,2084,2080,1
241,2068,2083,2080,1
241,2067,2085,2081,1
241,2068,2085,2081,1
241,2068,2085,2082,1
241,2068,2086,2083,1
241,2069,2086,2083,1
241,2069,2087,2083,1
241,2068,2086,2082,1
241,2068,2086,2081,1
241,2068,2088,2083,1
241,2072,2089,2083,1
241,2073,2089,2086,1
241,2073,2090,2087,1
241,2074,2090,2087,1
241,2072,2090,2085,1
241,2069,2086,2079,1
241,2065,2085,2079,1
241,2067,2085,2080,1
241,2067,2086,2081,1
241,2067,2086,2081,1
241,2068,2087,2082,1
241,2068,2087,2083,1
241,2068,2086,2083,1
241,2068,2086,2082,1
241,2066,2085,2082,1
241,2067,2085,2082,1
241,2068,2087,2084,1
241,2070,2089,2085,1
241,2072,2091,2087,1
241,2072,2092,2088,1
241,2071,2091,2088,1
241,2068,2091,2083,1
241,2068,2084,2081,1
241,2067,2083,2079,1
241,2068,2084,2080,1
241,2068,2085,2082,1
241,2068,2085,2082,1
241,2068,2085,2082,1
241,2069,2086,2082,1
241,2069,2086,2083,1
241,2068,2085,2083,1
241,2067,2085,2081,1
241,2069,2086,2082,1
241,2070,2087,2085,1
241,2073,2089,2085,1
241,2074,2089,2087,1
241,2074,2091,2088,1
241,2073,2089,2087,1
241,2070,2088,2084,1
241,2067,2085,2081,1
241,2066,2085,2079,1
241,2066,2085,2082,1
241,2068,2085,2082,1
241,2068,2085,2082,1
241,2068,2085,2083,1
241,2069,2085,2083,1
241,2069,2086,2083,1
241,2068,2085,2083,1
241,2067,2086,2082,1
241,2069,2086,2084,1
241,2069,2089,2086,1
241,2071,2091,2086,1
241,2073,2093,2087,1
241,2073,2092,2087,1
241,2072,2087,2086,1
241,2072,2087,2081,1
241,2066,2085,2081,1
241,2066,2085,2080,1
241,2066,2085,2082,1
241,2067,2084,2082,1
241,2068,2085,2082,1
241,2068,2086,2083,1
241,2069,2086,2083,1
241,2069,2086,2083,1
241,2069,2084,2082,1
241,2069,2085,2082,1
241,2071,2087,2084,1
241,2072,2088,2086,1
241,2073,2089,2087,1
241,2074,2091,2088,1
241,2074,2090,2088,1
241,2071,2090,2085,1
241,2071,2084,2082,1
241,2068,2082,2080,1
241,2068,2082,2080,1
241,2068,2084,2081,1
241,2068,2085,2082,1
241,2068,2085,2083,1
241,2068,2087,2084,1
241,2069,2087,2084,1
241,2069,2087,2083,1
241,2068,2085,2083,1
241,2069,2085,2083,1
241,2069,2087,2085,1
241,2072,2089,2085,1
241,2073,2089,2088,1
241,2073,2091,2088,1
241,2074,2090,2088,1
241,2071,2090,2086,1
241,2068,2086,2083,1
241,2067,2084,2080,1
241,2068,2084,2081,1
241,2068,2086,2081,1
241,2068,2086,2081,1
241,2069,2087,2082,1
241,2069,2088,2083,1
241,2069,2086,2083,1
241,2068,2086,2083,1
241,2068,2085,2083,1
241,2069,2085,2084,1
241,2069,2087,2086,1
241,2071,2089,2087,1
241,2072,2091,2088,1
241,2072,2091,2088,1
241,2072,2088,2088,1
241,2068,2088,2082,1
241,2068,2084,2080,1
241,2067,2084,2080,1
241,2068,2085,2081,1
241,2068,2085,2082,1
241,2068,2085,2082,1
241,2069,2086,2083,1
241,2069,2087,2083,1
241,2069,2087,2084,1
241,2069,2085,2083,1
241,2069,2085,2082,1
241,2071,2087,2083,1
241,2071,2088,2085,1
241,2072,2089,2086,1
241,2073,2091,2088,1
241,2073,2092,2087,1
241,2070,2089,2087,1
241,2067,2087,2084,1
241,2065,2084,2082,1
241,2065,2084,2081,1
241,2067,2085,2082,1
241,2067,2086,2082,1
241,2068,2086,2083,1
241,2068,2087,2084,1
241,2069,2087,2084,1
241,2069,2087,2084,1
241,2068,2086,2083,1
241,2068,2086,2082,1
241,2070,2087,2085,1
241,2070,2090,2087,1
241,2073,2091,2087,1
241,2074,2092,2088,1
241,2074,2092,2087,1
241,2071,2088,2085,1
241,2066,2086,2082,1
241,2066,2083,2082,1
241,2067,2083,2082,1
241,2067,2085,2083,1
241,2067,2085,2083,1
241,2068,2086,2083,1
241,2068,2087,2084,1
241,2069,2086,2084,1
241,2068,2086,2083,1
241,2068,2085,2083,1
241,2069,2086,2083,1
241,2071,2088,2085,1
241,2072,2089,2087,1
241,2073,2090,2088,1
241,2074,2091,2089,1
241,2074,2089,2089,1
241,2071,2089,2085,1
241,2071,2083,2082,1
241,2069,2082,2080,1
241,2069,2084,2081,1
241,2069,2085,2082,1
241,2069,2085,2082,1
241,2069,2085,2082,1
241,2069,2087,2083,1
241,2070,2087,2083,1
241,2069,2087,2082,1
241,2068,2086,2083,1
241,2069,2086,2083,1
241,2073,2088,2085,1
241,2073,2091,2085,1
241,2074,2091,2087,1
241,2074,2092,2087,1
241,2073,2089,2087,1
241,2070,2088,2084,1
241,2067,2085,2081,1
241,2066,2084,2079,1
241,2067,2085,2081,1
241,2067,2086,2082,1
241,2068,2086,2082,1
241,2069,2087,2083,1
241,2069,2087,2083,1
241,2069,2085,2083,1
241,2069,2085,2082,1
241,2068,2086,2082,1
241,2070,2086,2084,1
241,2070,2089,2086,1
241,2074,2090,2086,1
241,2075,2092,2088,1
241,2075,2092,2088,1
241,2073,2089,2087,1
241,2069,2088,2081,1
241,2069,2084,2080,1
241,2068,2084,2080,1
241,2069,2086,2081,1
241,2069,2086,2082,1
241,2069,2085,2082,1
241,2070,2087,2083,1
241,2070,2087,2083,1
241,2069,2087,2083,1
241,2069,2085,2082,1
241,2069,2086,2082,1
241,2071,2088,2084,1
241,2071,2089,2086,1
241,2073,2089,2087,1
241,2073,2091,2088,1
241,2073,2091,2087,1
241,2070,2088,2087,1
241,2067,2086,2083,1
241,2065,2084,2082,1
241,2066,2084,2081,1
241,2068,2086,2082,1
241,2068,2086,2082,1
241,2068,2086,2083,1
241,2068,2088,2083,1
241,2068,2087,2083,1
241,2068,2087,2083,1
241,2067,2085,2083,1
241,2068,2085,2083,1
241,2070,2087,2086,1
241,2070,2090,2088,1
241,2073,2091,2088,1
241,2074,2092,2088,1
241,2074,2090,2086,1
241,2071,2086,2084,1
241,2066,2085,2081,1
241,2066,2084,2081,1
241,2068,2084,2081,1
241,2068,2086,2082,1
241,2068,2086,2082,1
241,2069,2087,2083,1
241,2069,2087,2084,1
241,2069,2085,2084,1
241,2068,2085,2083,1
241,2068,2085,2083,1
241,2069,2086,2083,1
241,2071,2089,2085,1
241,2072,2090,2086,1
241,2073,2090,2087,1
241,2073,2092,2088,1
241,2073,2089,2088,1
241,2069,2089,2083,1
241,2069,2084,2081,1
241,2068,2084,2080,1
241,2069,2085,2081,1
241,2069,2085,2082,1
241,2069,2085,2082,1
241,2069,2086,2083,1
241,2069,2088,2083,1
241,2068,2087,2083,1
241,2068,2087,2082,1
241,2067,2087,2083,1
241,2069,2088,2084,1
241,2073,2090,2086,1
241,2073,2092,2086,1
241,2074,2092,2088,1
241,2074,2092,2088,1
241,2073,2089,2087,1
241,2069,2087,2084,1
241,2066,2084,2082,1
241,2066,2083,2080,1
241,2067,2085,2082,1
241,2067,2086,2082,1
241,2068,2086,2082,1
241,2069,2087,2083,1
241,2069,2087,2083,1
241,2068,2085,2083,1
241,2068,2085,2082,1
241,2068,2086,2082,1
241,2070,2086,2084,1
241,2070,2089,2086,1
241,2072,2090,2087,1
241,2073,2092,2088,1
241,2073,2091,2088,1
241,2071,2086,2087,1
241,2066,2086,2084,1
241,2066,2083,2083,1
241,2067,2084,2083,1
241,2068,2086,2084,1
241,2068,2086,2084,1
241,2068,2086,2084,1
241,2069,2087,2085,1
241,2069,2088,2085,1
241,2068,2088,2084,1
241,2068,2086,2084,1
241,2069,2087,2084,1
241,2071,2088,2085,1
241,2072,2089,2087,1
241,2073,2089,2087,1
241,2073,2091,2088,1
241,2073,2090,2086,1
241,2069,2087,2086,1
241,2067,2085,2083,1
241,2065,2084,2083,1
241,2066,2084,2083,1
241,2068,2086,2084,1
241,2068,2086,2084,1
241,2069,2086,2084,1
241,2069,2087,2084,1
241,2069,2087,2084,1
241,2068,2087,2083,1
241,2066,2086,2083,1
241,2068,2087,2083,1
241,2071,2089,2085,1
241,2071,2091,2087,1
241,2074,2091,2087,1
241,2074,2092,2087,1
241,2073,2090,2085,1
241,2070,2086,2084,1
241,2067,2084,2082,1
241,2067,2085,2082,1
241,2068,2085,2082,1
241,2068,2086,2082,1
241,2068,2086,2082,1
241,2069,2086,2083,1
241,2069,2086,2084,1
241,2069,2085,2084,1
241,2068,2085,2082,1
241,2068,2086,2083,1
241,2070,2087,2083,1
241,2072,2089,2085,1
241,2073,2090,2087,1
241,2074,2090,2088,1
241,2072,2091,2088,1
241,2072,2087,2088,1
241,2069,2087,2082,1
241,2069,2084,2081,1
241,2068,2084,2080,1
241,2069,2085,2081,1
241,2069,2085,2082,1
241,2069,2085,2082,1
241,2069,2086,2083,1
241,2069,2087,2083,1
241,2068,2086,2083,1
241,2068,2086,2082,1
241,2068,2086,2083,1
241,2070,2087,2084,1
241,2073,2090,2086,1
241,2074,2092,2086,1
241,2074,2092,2088,1
241,2074,2091,2087,1
241,2070,2088,2087,1
241,2068,2086,2084,1
241,2066,2084,2083,1
241,2067,2084,2082,1
241,2067,2085,2084,1
241,2067,2086,2084,1
241,2068,2087,2084,1
241,2069,2088,2084,1
241,2069,2087,2084,1
241,2069,2085,2083,1
241,2070,2085,2082,1
241,2070,2088,2082,1
241,2072,2088,2085,1
241,2072,2091,2087,1
241,2073,2092,2088,1
241,2074,2093,2089,1
241,2074,2091,2087,1
241,2071,2087,2085,1
241,2068,2085,2080,1
241,2068,2083,2081,1
241,2069,2084,2081,1
241,2069,2086,2081,1
241,2069,2086,2082,1
241,2069,2086,2082,1
241,2070,2087,2083,1
241,2070,2087,2083,1
241,2068,2087,2083,1
241,2068,2085,2083,1
241,2069,2086,2083,1
241,2071,2089,2085,1
241,2072,2090,2087,1
241,2073,2090,2088,1
241,2073,2092,2088,1
241,2073,2089,2086,1
241,2068,2086,2086,1
241,2066,2085,2083,1
241,2065,2084,2083,1
241,2067,2084,2083,1
241,2068,2086,2083,1
241,2068,2087,2083,1
241,2068,2087,2083,1
241,2068,2088,2084,1
241,2069,2087,2084,1
241,2068,2087,2083,1
241,2067,2086,2084,1
241,2069,2087,2084,1
241,2072,2089,2086,1
241,2072,2092,2087,1
241,2074,2092,2087,1
241,2073,2092,2088,1
241,2071,2090,2085,1
241,2068,2086,2083,1
241,2068,2084,2081,1
241,2067,2086,2081,1
241,2068,2086,2083,1
241,2068,2087,2083,1
241,2069,2087,2083,1
241,2070,2088,2084,1
241,2070,2088,2084,1
241,2069,2086,2084,1
241,2069,2086,2083,1
241,2069,2087,2084,1
241,2071,2088,2084,1
241,2073,2088,2087,1
241,2074,2090,2088,1
241,2074,2090,2089,1
241,2073,2091,2089,1
241,2071,2087,2089,1
241,2068,2087,2082,1
241,2068,2084,2081,1
241,2068,2085,2081,1
241,2068,2087,2082,1
241,2068,2087,2083,1
241,2069,2087,2083,1
241,2070,2088,2084,1
241,2070,2087,2084,1
241,2069,2086,2084,1
241,2069,2086,2082,1
241,2069,2087,2084,1
241,2071,2088,2085,1
241,2073,2090,2087,1
241,2073,2091,2089,1
241,2074,2091,2089,1
241,2074,2090,2087,1
241,2069,2087,2087,1
241,2067,2086,2084,1
241,2065,2084,2083,1
241,2066,2084,2082,1
241,2068,2086,2083,1
241,2068,2086,2083,1
241,2069,2087,2083,1
241,2069,2087,2084,1
241,2069,2087,2084,1
241,2068,2086,2083,1
241,2069,2086,2083,1
241,2069,2087,2086,1
241,2072,2087,2086,1
241,2072,2090,2088,1
241,2074,2091,2088,1
241,2074,2091,2088,1
241,2073,2090,2086,1
241,2070,2086,2084,1
241,2068,2084,2081,1
241,2066,2084,2081,1
241,2067,2085,2081,1
241,2067,2085,2082,1
241,2067,2086,2083,1
241,2068,2086,2083,1
241,2069,2088,2084,1
241,2069,2087,2083,1
241,2067,2087,2082,1
241,2067,2086,2083,1
241,2069,2088,2083,1
241,2071,2088,2086,1
241,2073,2089,2087,1
241,2074,2089,2088,1
241,2074,2091,2088,1
241,2073,2088,2085,1
241,2067,2086,2085,1
241,2066,2086,2081,1
241,2066,2085,2082,1
241,2068,2085,2082,1
241,2068,2086,2083,1
241,2068,2086,2084,1
241,2069,2086,2084,1
241,2069,2087,2084,1
241,2068,2086,2084,1
241,2068,2086,2081,1
241,2067,2086,2083,1
241,2069,2088,2084,1
241,2072,2090,2086,1
241,2073,2092,2087,1
241,2074,2092,2087,1
241,2072,2092,2086,1
241,2070,2089,2083,1
241,2067,2086,2080,1
241,2067,2085,2080,1
241,2066,2086,2083,1
241,2067,2086,2083,1
241,2067,2087,2083,1
241,2068,2087,2083,1
241,2069,2087,2084,1
241,2069,2087,2084,1
241,2069,2085,2084,1
241,2070,2085,2083,1
241,2069,2087,2084,1
241,2071,2089,2084,1
241,2073,2089,2087,1
241,2073,2091,2088,1
241,2074,2091,2088,1
241,2072,2091,2086,1
241,2069,2088,2083,1
241,2065,2088,2080,1
241,2065,2084,2080,1
241,2066,2085,2080,1
241,2067,2085,2082,1
241,2067,2085,2082,1
241,2068,2085,2082,1
241,2069,2087,2083,1
241,2069,2087,2083,1
241,2068,2086,2083,1
241,2069,2086,2083,1
241,2069,2089,2084,1
241,2071,2090,2085,1
241,2073,2091,2087,1
241,2074,2092,2088,1
241,2074,2092,2088,1
241,2074,2090,2085,1
241,2068,2087,2085,1
241,2066,2087,2080,1
241,2065,2086,2081,1
241,2067,2086,2082,1
241,2067,2088,2082,1
241,2067,2088,2083,1
241,2068,2088,2083,1
241,2068,2088,2084,1
241,2068,2086,2083,1
241,2067,2085,2082,1
241,2069,2086,2083,1
241,2069,2088,2085,1
241,2072,2091,2087,1
241,2072,2091,2088,1
241,2074,2091,2088,1
241,2074,2091,2088,1
241,2072,2089,2085,1
241,2069,2086,2083,1
241,2068,2084,2081,1
241,2067,2084,2082,1
241,2068,2085,2082,1
241,2068,2085,2083,1
241,2068,2086,2083,1
241,2069,2086,2083,1
241,2069,2087,2083,1
241,2068,2087,2083,1
241,2068,2087,2082,1
241,2068,2087,2083,1
241,2070,2089,2083,1
241,2072,2089,2087,1
241,2073,2091,2088,1
241,2074,2091,2088,1
241,2073,2092,2088,1
241,2071,2088,2085,1
241,2066,2085,2082,1
241,2066,2085,2080,1
241,2066,2086,2081,1
241,2067,2086,2082,1
241,2067,2087,2082,1
241,2067,2087,2083,1
241,2068,2086,2083,1
241,2068,2087,2083,1
241,2067,2086,2083,1
241,2067,2086,2081,1
241,2067,2088,2083,1
241,2070,2089,2085,1
241,2072,2091,2087,1
241,2073,2092,2088,1
241,2074,2092,2088,1
241,2072,2092,2086,1
241,2072,2086,2083,1
241,2067,2084,2083,1
241,2067,2084,2082,1
241,2067,2085,2083,1
241,2068,2085,2083,1
241,2068,2086,2083,1
241,2069,2087,2083,1
241,2069,2087,2085,1
241,2069,2087,2084,1
241,2069,2086,2083,1
241,2070,2086,2083,1
241,2070,2087,2085,1
241,2072,2091,2086,1
241,2073,2091,2088,1
241,2073,2092,2089,1
241,2074,2091,2089,1
241,2071,2091,2087,1
241,2068,2088,2084,1
241,2066,2085,2081,1
241,2066,2085,2081,1
241,2067,2085,2081,1
241,2068,2085,2082,1
241,2068,2085,2082,1
241,2069,2086,2082,1
241,2069,2088,2083,1
241,2068,2087,2083,1
241,2068,2085,2083,1
241,2069,2085,2083,1
241,2069,2089,2085,1
241,2073,2091,2085,1
241,2075,2092,2086,1
241,2075,2092,2087,1
241,2075,2090,2087,1
241,2068,2089,2085,1
241,2068,2085,2085,1
241,2067,2085,2080,1
241,2067,2084,2081,1
241,2068,2085,2081,1
241,2068,2086,2082,1
241,2068,2086,2083,1
241,2069,2086,2083,1
241,2069,2088,2083,1
241,2069,2087,2082,1
241,2067,2087,2082,1
241,2069,2088,2083,1
241,2070,2090,2085,1
241,2072,2090,2087,1
241,2074,2092,2088,1
241,2074,2092,2088,1
241,2072,2092,2087,1
241,2072,2087,2084,1
241,2069,2084,2082,1
241,2068,2083,2081,1
241,2067,2084,2082,1
241,2068,2083,2083,1
241,2068,2085,2083,1
241,2068,2087,2084,1
241,2070,2087,2084,1
241,2070,2088,2084,1
241,2068,2086,2083,1
241,2068,2086,2082,1
241,2071,2087,2083,1
241,2072,2091,2083,1
241,2073,2091,2087,1
241,2073,2093,2088,1
241,2075,2093,2088,1
241,2072,2093,2087,1
241,2069,2089,2084,1
241,2067,2086,2081,1
241,2068,2085,2081,1
241,2068,2087,2082,1
241,2069,2087,2082,1
241,2069,2087,2083,1
241,2068,2087,2084,1
241,2069,2087,2084,1
241,2069,2088,2084,1
241,2068,2086,2084,1
241,2068,2086,2084,1
241,2068,2089,2085,1
241,2071,2090,2085,1
241,2073,2091,2086,1
241,2074,2092,2087,1
241,2074,2090,2087,1
241,2069,2090,2086,1
241,2069,2085,2083,1
241,2065,2084,2083,1
241,2066,2084,2083,1
241,2067,2085,2083,1
241,2068,2085,2083,1
241,2069,2086,2083,1
241,2069,2087,2084,1
241,2069,2087,2084,1
241,2069,2087,2084,1
241,2068,2086,2084,1
241,2069,2086,2084,1
241,2069,2087,2086,1
241,2071,2088,2087,1
241,2073,2091,2088,1
241,2074,2092,2088,1
241,2073,2090,2088,1
241,2070,2090,2084,1
241,2067,2087,2081,1
241,2066,2085,2079,1
241,2067,2085,2081,1
241,2067,2085,2082,1
241,2067,2085,2082,1
241,2067,2086,2083,1
241,2069,2087,2083,1
241,2069,2087,2084,1
241,2068,2086,2083,1
241,2067,2085,2083,1
241,2069,2086,2084,1
241,2070,2087,2087,1
241,2072,2089,2087,1
241,2073,2089,2088,1
241,2073,2091,2088,1
241,2072,2088,2088,1
241,2069,2087,2085,1
241,2066,2084,2083,1
241,2066,2084,2081,1
241,2066,2085,2082,1
241,2068,2085,2082,1
241,2068,2085,2083,1
241,2068,2085,2084,1
241,2069,2085,2084,1
241,2069,2086,2084,1
241,2068,2086,2082,1
241,2068,2086,2082,1
241,2070,2086,2084,1
241,2070,2088,2086,1
241,2072,2090,2087,1
241,2074,2091,2088,1
241,2074,2091,2088,1
241,2070,2091,2087,1
241,2070,2086,2083,1
241,2065,2084,2083,1
241,2066,2084,2081,1
241,2066,2085,2082,1
241,2067,2085,2083,1
241,2068,2086,2083,1
241,2068,2086,2084,1
241,2069,2086,2084,1
241,2068,2086,2083,1
241,2068,2084,2082,1
241,2068,2086,2082,1
241,2070,2088,2084,1
241,2071,2089,2087,1
241,2073,2091,2088,1
241,2073,2091,2089,1
241,2074,2091,2089,1
241,2071,2091,2086,1
241,2068,2087,2083,1
241,2066,2085,2080,1
241,2067,2085,2080,1
241,2067,2085,2082,1
241,2068,2086,2082,1
241,2068,2086,2083,1
241,2068,2088,2084,1
241,2068,2087,2084,1
241,2068,2087,2083,1
241,2067,2085,2083,1
241,2068,2085,2083,1
241,2068,2087,2086,1
241,2072,2089,2086,1
241,2074,2089,2089,1
241,2074,2091,2089,1
241,2074,2089,2089,1
241,2071,2089,2086,1
241,2068,2086,2083,1
241,2066,2085,2081,1
241,2067,2085,2082,1
241,2067,2086,2082,1
241,2068,2086,2082,1
241,2069,2087,2083,1
241,2069,2087,2084,1
241,2069,2085,2084,1
241,2069,2085,2083,1
241,2067,2085,2083,1
241,2068,2085,2083,1
241,2068,2088,2085,1
241,2071,2089,2086,1
241,2073,2091,2087,1
241,2073,2091,2088,1
241,2071,2089,2087,1
241,2068,2089,2083,1
241,2068,2084,2081,1
241,2068,2084,2079,1
241,2069,2085,2080,1
241,2069,2085,2081,1
241,2069,2085,2081,1
241,2069,2086,2083,1
241,2070,2086,2083,1
241,2069,2086,2084,1
241,2069,2084,2082,1
241,2069,2084,2082,1
241,2071,2086,2083,1
241,2071,2088,2086,1
241,2073,2090,2087,1
241,2073,2090,2088,1
241,2073,2091,2087,1
241,2071,2088,2087,1
241,2068,2087,2084,1
241,2065,2084,2082,1
241,2066,2084,2081,1
241,2068,2086,2082,1
241,2068,2086,2082,1
241,2068,2086,2083,1
241,2068,2087,2084,1
241,2069,2087,2084,1
241,2069,2088,2084,1
241,2068,2086,2083,1
241,2068,2085,2082,1
241,2070,2086,2084,1
241,2070,2089,2086,1
241,2073,2090,2086,1
241,2073,2092,2088,1
241,2072,2091,2087,1
241,2070,2087,2086,1
241,2068,2086,2083,1
241,2065,2084,2083,1
241,2066,2084,2083,1
241,2066,2086,2083,1
241,2067,2086,2083,1
241,2067,2087,2084,1
241,2067,2087,2084,1
241,2068,2086,2084,1
241,2067,2086,2084,1
241,2067,2084,2084,1
241,2068,2086,2084,1
241,2070,2086,2086,1
241,2071,2088,2087,1
241,2073,2089,2088,1
241,2074,2091,2088,1
241,2074,2090,2088,1
241,2071,2090,2084,1
241,2071,2084,2081,1
241,2067,2083,2081,1
241,2068,2083,2082,1
241,2068,2084,2083,1
241,2068,2084,2083,1
241,2069,2085,2083,1
241,2069,2087,2083,1
241,2069,2086,2083,1
241,2068,2086,2082,1
241,2066,2086,2082,1
241,2068,2087,2082,1
241,2071,2089,2084,1
241,2072,2090,2088,1
241,2074,2090,2088,1
241,2074,2091,2088,1
241,2072,2089,2088,1
241,2069,2088,2085,1
241,2066,2085,2082,1
241,2066,2084,2080,1
241,2068,2085,2081,1
241,2068,2086,2081,1
241,2068,2086,2081,1
241,2068,2086,2083,1
241,2069,2086,2084,1
241,2069,2085,2084,1
241,2069,2085,2083,1
241,2068,2085,2084,1
241,2069,2085,2084,1
241,2069,2089,2086,1
241,2073,2090,2086,1
241,2074,2090,2088,1
241,2074,2090,2088,1
241,2073,2087,2087,1
241,2070,2086,2084,1
241,2067,2083,2081,1
241,2067,2084,2081,1
241,2068,2084,2083,1
241,2068,2085,2083,1
241,2068,2085,2083,1
241,2069,2086,2084,1
241,2069,2086,2084,1
241,2068,2086,2083,1
241,2068,2085,2082,1
241,2068,2086,2082,1
241,2070,2086,2085,1
241,2071,2088,2087,1
241,2073,2089,2088,1
241,2074,2091,2089,1
241,2074,2091,2087,1
241,2070,2088,2087,1
241,2068,2088,2081,1
241,2068,2084,2081,1
241,2068,2084,2081,1
241,2069,2086,2082,1
241,2069,2086,2083,1
241,2069,2086,2083,1
241,2069,2087,2084,1
241,2069,2087,2084,1
241,2068,2087,2084,1
241,2067,2086,2083,1
241,2068,2087,2083,1
241,2071,2088,2084,1
241,2072,2089,2088,1
241,2074,2091,2088,1
241,2074,2091,2089,1
241,2074,2090,2087,1
241,2071,2087,2084,1
241,2068,2085,2082,1
241,2065,2084,2082,1
241,2066,2086,2082,1
241,2066,2086,2083,1
241,2067,2086,2083,1
241,2068,2086,2083,1
241,2068,2087,2083,1
241,2068,2086,2083,1
241,2068,2087,2083,1
241,2067,2086,2083,1
241,2069,2088,2083,1
241,2071,2088,2086,1
241,2071,2091,2087,1
241,2073,2091,2087,1
241,2073,2092,2088,1
241,2072,2090,2086,1
241,2069,2086,2084,1
241,2069,2084,2080,1
241,2066,2084,2080,1
241,2067,2084,2081,1
241,2067,2086,2081,1
241,2067,2086,2081,1
241,2069,2087,2082,1
241,2070,2087,2083,1
241,2070,2085,2083,1
241,2069,2085,2082,1
241,2069,2085,2083,1
241,2071,2087,2083,1
241,2073,2089,2085,1
241,2074,2091,2087,1
241,2074,2091,2088,1
241,2073,2092,2088,1
241,2073,2088,2088,1
241,2069,2088,2082,1
241,2069,2084,2080,1
241,2068,2084,2079,1
241,2069,2085,2080,1
241,2069,2085,2081,1
241,2069,2085,2081,1
241,2069,2086,2083,1
241,2069,2087,2083,1
241,2068,2086,2083,1
241,2068,2086,2082,1
241,2068,2087,2084,1
241,2070,2088,2084,1
241,2072,2090,2086,1
241,2073,2092,2086,1
241,2074,2092,2087,1
241,2074,2091,2086,1
241,2070,2087,2086,1
241,2068,2086,2083,1
241,2065,2084,2082,1
241,2065,2084,2082,1
241,2066,2086,2083,1
241,2066,2086,2083,1
241,2067,2087,2083,1
241,2068,2087,2084,1
241,2068,2087,2084,1
241,2068,2086,2084,1
241,2069,2086,2083,1
241,2069,2087,2085,1
241,2072,2087,2085,1
241,2072,2090,2087,1
241,2074,2091,2087,1
241,2074,2092,2087,1
241,2074,2091,2086,1
241,2071,2087,2085,1
241,2069,2085,2082,1
241,2067,2083,2082,1
241,2068,2085,2082,1
241,2068,2085,2083,1
241,2068,2085,2083,1
241,2069,2086,2083,1
241,2069,2088,2084,1
241,2069,2087,2084,1
241,2068,2087,2084,1
241,2068,2085,2084,1
241,2070,2086,2084,1
241,2072,2086,2086,1
241,2072,2088,2087,1
241,2073,2089,2088,1
241,2074,2091,2088,1
241,2074,2089,2084,1
241,2068,2086,2084,1
241,2066,2086,2080,1
241,2066,2084,2080,1
241,2067,2085,2081,1
241,2068,2087,2082,1
241,2068,2087,2083,1
241,2068,2087,2083,1
241,2068,2088,2083,1
241,2069,2087,2083,1
241,2068,2087,2082,1
241,2067,2087,2083,1
241,2069,2088,2083,1
241,2071,2090,2085,1
241,2072,2090,2088,1
241,2074,2091,2088,1
241,2073,2091,2088,1
241,2073,2088,2085,1
241,2069,2085,2083,1
241,2068,2084,2081,1
241,2067,2084,2082,1
241,2068,2085,2082,1
241,2068,2085,2083,1
241,2069,2086,2083,1
241,2069,2086,2084,1
241,2069,2086,2085,1
241,2069,2085,2084,1
241,2069,2085,2083,1
241,2068,2085,2084,1
241,2070,2088,2085,1
241,2072,2088,2088,1
241,2072,2090,2088,1
241,2073,2090,2088,1
241,2072,2091,2088,1
241,2070,2088,2085,1
241,2068,2084,2081,1
241,2068,2083,2080,1
241,2067,2084,2080,1
241,2068,2084,2083,1
241,2068,2085,2083,1
241,2068,2085,2083,1
241,2069,2086,2084,1
241,2069,2086,2084,1
241,2068,2086,2083,1
241,2068,2086,2082,1
241,2068,2087,2084,1
241,2071,2088,2084,1
241,2073,2091,2086,1
241,2073,2091,2087,1
241,2073,2090,2087,1
241,2073,2090,2085,1
241,2069,2087,2085,1
241,2066,2087,2079,1
241,2066,2084,2079,1
241,2067,2085,2079,1
241,2068,2087,2080,1
241,2068,2086,2081,1
241,2069,2086,2082,1
241,2069,2087,2083,1
241,2069,2087,2083,1
241,2068,2086,2083,1
241,2069,2086,2083,1
241,2069,2087,2084,1
241,2071,2088,2085,1
241,2073,2091,2087,1
241,2074,2092,2087,1
241,2074,2092,2088,1
241,2074,2090,2086,1
241,2069,2086,2086,1
241,2067,2085,2083,1
241,2066,2084,2083,1
241,2067,2084,2083,1
241,2068,2086,2083,1
241,2068,2087,2083,1
241,2069,2087,2083,1
241,2069,2088,2084,1
241,2068,2087,2084,1
241,2068,2085,2083,1
241,2070,2085,2083,1
241,2070,2089,2083,1
241,2072,2089,2086,1
241,2072,2091,2087,1
241,2073,2091,2088,1
241,2073,2092,2088,1
241,2072,2089,2086,1
241,2069,2085,2083,1
241,2068,2084,2080,1
241,2068,2085,2081,1
241,2069,2086,2081,1
241,2069,2087,2082,1
241,2069,2087,2083,1
241,2070,2087,2083,1
241,2069,2088,2083,1
241,2069,2086,2083,1
241,2068,2086,2081,1
241,2068,2086,2082,1
241,2071,2087,2082,1
241,2072,2089,2084,1
241,2072,2090,2086,1
241,2073,2090,2087,1
241,2071,2091,2087,1
241,2071,2087,2084,1
241,2066,2085,2084,1
241,2066,2084,2082,1
241,2066,2085,2083,1
241,2067,2085,2083,1
241,2068,2086,2083,1
241,2068,2087,2083,1
241,2069,2087,2084,1
241,2069,2087,2084,1
241,2068,2086,2084,1
241,2068,2086,2083,1
241,2068,2086,2084,1
241,2070,2087,2085,1
241,2074,2089,2087,1
241,2074,2091,2088,1
241,2075,2091,2088,1
241,2072,2091,2087,1
241,2070,2088,2083,1
241,2068,2085,2080,1
241,2068,2085,2080,1
241,2068,2085,2083,1
241,2069,2085,2083,1
241,2069,2086,2083,1
241,2069,2087,2083,1
241,2069,2088,2084,1
241,2069,2087,2084,1
241,2068,2085,2083,1
241,2069,2085,2083,1
241,2069,2088,2085,1
241,2072,2090,2085,1
241,2073,2090,2088,1
241,2073,2091,2089,1
241,2073,2090,2089,1
241,2071,2090,2087,1
241,2068,2086,2081,1
241,2066,2086,2081,1
241,2066,2084,2081,1
241,2068,2085,2081,1
241,2068,2086,2082,1
241,2068,2086,2083,1
241,2069,2086,2083,1
241,2069,2087,2084,1
241,2069,2086,2083,1
241,2066,2086,2083,1
241,2068,2086,2083,1
241,2069,2088,2085,1
241,2071,2089,2086,1
241,2073,2091,2088,1
241,2073,2092,2089,1
241,2072,2092,2089,1
241,2072,2089,2086,1
241,2066,2086,2086,1
241,2065,2085,2083,1
241,2064,2084,2083,1
241,2067,2084,2083,1
241,2068,2085,2083,1
241,2068,2087,2083,1
241,2070,2087,2083,1
241,2070,2087,2083,1
241,2070,2085,2082,1
241,2069,2085,2081,1
241,2071,2086,2082,1
241,2071,2088,2085,1
241,2073,2088,2087,1
241,2073,2092,2088,1
241,2074,2092,2088,1
241,2072,2092,2088,1
241,2071,2089,2085,1
241,2068,2086,2082,1
241,2068,2085,2081,1
241,2067,2085,2082,1
241,2068,2086,2083,1
241,2068,2086,2083,1
241,2068,2086,2084,1
241,2069,2087,2084,1
241,2069,2088,2084,1
241,2068,2086,2083,1
241,2068,2085,2082,1
241,2068,2087,2084,1
241,2071,2089,2084,1
241,2073,2089,2088,1
241,2073,2091,2089,1
241,2074,2091,2089,1
241,2072,2091,2089,1
241,2070,2088,2086,1
241,2064,2086,2083,1
241,2066,2086,2082,1
241,2066,2087,2082,1
241,2068,2086,2082,1
241,2069,2087,2083,1
241,2069,2087,2084,1
241,2070,2086,2084,1
241,2070,2086,2084,1
241,2068,2086,2084,1
241,2069,2086,2083,1
241,2069,2088,2085,1
241,2071,2089,2086,1
241,2073,2091,2088,1
241,2074,2092,2089,1
241,2074,2091,2089,1
241,2071,2091,2086,1
241,2071,2085,2083,1
241,2067,2084,2083,1
241,2068,2084,2083,1
241,2068,2085,2084,1
241,2068,2085,2084,1
241,2069,2086,2084,1
241,2069,2088,2084,1
241,2069,2088,2085,1
241,2069,2086,2084,1
241,2068,2085,2084,1
241,2070,2085,2084,1
241,2070,2086,2086,1
241,2072,2087,2087,1
241,2073,2090,2089,1
241,2073,2091,2089,1
241,2073,2090,2089,1
241,2070,2090,2086,1
241,2068,2086,2084,1
241,2067,2085,2082,1
241,2069,2085,2082,1
241,2069,2087,2082,1
241,2069,2087,2083,1
241,2069,2087,2083,1
241,2070,2087,2083,1
241,2070,2088,2083,1
241,2069,2087,2083,1
241,2068,2086,2082,1
241,2070,2087,2083,1
241,2070,2090,2085,1
241,2074,2091,2085,1
241,2075,2091,2088,1
241,2075,2091,2088,1
241,2074,2089,2088,1
241,2071,2088,2085,1
241,2068,2085,2081,1
241,2066,2085,2081,1
241,2066,2085,2082,1
241,2068,2085,2082,1
241,2068,2085,2083,1
241,2068,2086,2084,1
241,2069,2086,2084,1
241,2069,2087,2084,1
241,2068,2086,2083,1
241,2068,2087,2083,1
241,2070,2087,2084,1
241,2071,2089,2086,1
241,2073,2090,2087,1
241,2074,2092,2088,1
241,2074,2092,2088,1
241,2071,2092,2088,1
241,2071,2088,2085,1
241,2066,2086,2085,1
241,2067,2086,2082,1
241,2067,2086,2083,1
241,2068,2086,2083,1
241,2069,2087,2083,1
241,2069,2087,2084,1
241,2070,2087,2084,1
241,2069,2087,2084,1
241,2069,2085,2083,1
241,2069,2086,2082,1
241,2071,2088,2083,1
241,2072,2089,2085,1
241,2073,2092,2087,1
241,2073,2092,2088,1
241,2074,2092,2088,1
241,2072,2092,2086,1
241,2070,2089,2083,1
241,2068,2086,2081,1
241,2069,2085,2081,1
241,2069,2085,2082,1
241,2069,2085,2082,1
241,2069,2085,2083,1
241,2069,2086,2084,1
241,2070,2086,2084,1
241,2069,2086,2083,1
241,2068,2085,2083,1
241,2069,2086,2083,1
241,2069,2088,2086,1
241,2073,2090,2086,1
241,2074,2090,2088,1
241,2074,2091,2088,1
241,2074,2090,2088,1
241,2072,2090,2086,1
241,2069,2087,2083,1
241,2067,2086,2081,1
241,2068,2086,2081,1
241,2068,2087,2082,1
241,2069,2087,2082,1
241,2070,2088,2082,1
241,2070,2088,2083,1
241,2070,2086,2084,1
241,2069,2086,2083,1
241,2069,2084,2083,1
241,2070,2084,2083,1
241,2070,2088,2085,1
241,2072,2089,2086,1
241,2074,2091,2088,1
241,2074,2091,2089,1
241,2074,2088,2089,1
241,2071,2088,2083,1
241,2071,2084,2081,1
241,2068,2084,2081,1
241,2069,2085,2082,1
241,2069,2086,2082,1
241,2069,2086,2082,1
241,2070,2086,2083,1
241,2071,2087,2083,1
241,2071,2087,2083,1
241,2071,2086,2082,1
241,2069,2086,2082,1
241,2071,2087,2083,1
241,2072,2088,2085,1
241,2074,2089,2087,1
241,2074,2091,2088,1
241,2074,2092,2088,1
241,2073,2089,2088,1
241,2070,2089,2082,1
241,2068,2086,2081,1
241,2068,2085,2080,1
241,2070,2085,2081,1
241,2070,2086,2081,1
241,2070,2086,2082,1
241,2070,2087,2083,1
241,2071,2087,2083,1
241,2071,2088,2083,1
241,2070,2086,2082,1
241,2070,2086,2081,1
241,2073,2087,2083,1
241,2073,2090,2085,1
241,2076,2091,2085,1
241,2076,2091,2088,1
241,2076,2091,2088,1
241,2073,2088,2087,1
241,2071,2086,2084,1
241,2069,2085,2082,1
241,2069,2085,2082,1
241,2069,2087,2083,1
241,2070,2087,2083,1
241,2071,2087,2083,1
241,2071,2087,2084,1
241,2071,2086,2084,1
241,2071,2087,2084,1
241,2070,2086,2084,1
241,2071,2087,2084,1
241,2073,2087,2087,1
241,2074,2089,2089,1
241,2075,2090,2090,1
241,2076,2092,2090,1
241,2076,2091,2087,1
241,2070,2091,2087,1
241,2070,2086,2084,1
241,2067,2086,2084,1
241,2068,2086,2084,1
241,2068,2087,2084,1
241,2069,2087,2084,1
241,2071,2088,2084,1
241,2071,2088,2085,1
241,2071,2088,2085,1
241,2070,2088,2084,1
241,2070,2086,2085,1
241,2071,2088,2085,1
241,2074,2090,2087,1
241,2075,2091,2089,1
241,2076,2092,2090,1
241,2076,2092,2091,1
241,2075,2091,2091,1
241,2072,2091,2086,1
241,2069,2088,2084,1
241,2069,2087,2082,1
241,2070,2087,2083,1
241,2070,2087,2084,1
241,2070,2088,2084,1
241,2071,2088,2085,1
241,2071,2089,2086,1
241,2071,2089,2086,1
241,2070,2089,2086,1
241,2069,2088,2086,1
241,2071,2089,2086,1
241,2071,2091,2088,1
241,2075,2093,2088,1
241,2076,2093,2090,1
241,2076,2094,2090,1
241,2075,2091,2090,1
241,2072,2090,2087,1
241,2069,2087,2085,1
241,2068,2087,2083,1
241,2070,2087,2085,1
241,2070,2089,2085,1
241,2071,2089,2085,1
241,2071,2092,2085,2
241,2071,2093,2085,2
241,2071,2092,2085,2
241,2071,2090,2085,2
241,2071,2092,2085,2
241,2071,2094,2085,2
241,2071,2096,2085,2
241,2071,2097,2085,2
241,2071,2097,2085,2
241,2071,2097,2086,2
241,2071,2093,2086,2
241,2070,2091,2084,2
241,2068,2089,2084,2
241,2069,2088,2084,2
241,2069,2090,2087,2
241,2070,2090,2087,2
241,2062,2090,2080,2
241,2062,2079,2076,2
241,2056,2075,2073,2
241,2052,2074,2070,2
241,2047,2071,2068,2
241,2046,2070,2066,2
241,2046,2070,2067,2
241,2046,2072,2068,2
241,2048,2072,2068,2
241,2048,2074,2069,2
241,2047,2072,2068,2
241,2044,2067,2066,2
241,2040,2066,2064,2
241,2040,2064,2064,2
241,2041,2064,2064,2
241,2041,2067,2065,2
241,2042,2067,2065,2
241,2043,2068,2065,2
241,2042,2068,2066,2
241,2042,2066,2066,2
241,2041,2067,2065,2
241,2041,2066,2065,2
241,2043,2067,2065,2
241,2045,2067,2068,2
241,2045,2069,2070,2
241,2047,2069,2070,2
241,2048,2072,2070,2
241,2047,2070,2070,2
241,2043,2070,2066,2
241,2043,2064,2064,2
241,2040,2064,2064,2
241,2042,2066,2065,2
241,2042,2066,2065,2
241,2042,2065,2065,2
241,2044,2067,2066,2
241,2044,2069,2066,2
241,2043,2068,2066,2
241,2042,2068,2065,2
241,2040,2068,2066,2
241,2052,2078,2071,2
241,2064,2087,2081,2
241,2072,2093,2094,2
241,2082,2093,2094,2
241,2082,2100,2097,2
241,2084,2100,2097,2
241,2082,2100,2096,2
241,2081,2098,2095,2
241,2082,2098,2095,2
241,2084,2099,2097,2
241,2085,2100,2098,2
241,2085,2100,2098,2
241,2086,2100,2099,2
241,2086,2100,2099,2
241,2085,2099,2099,2
241,2085,2099,2098,2
241,2085,2101,2098,2
241,2086,2101,2100,2
241,2086,2105,2102,2
241,2090,2106,2102,2
241,2090,2107,2103,2
241,2090,2107,2103,2
241,2088,2103,2102,2
241,2085,2102,2096,2
241,2085,2099,2096,2
241,2085,2100,2096,2
241,2085,2100,2098,2
241,2085,2100,2098,2
241,2085,2100,2098,2
241,2087,2101,2099,2
241,2087,2101,2099,2
241,2085,2101,2098,2
241,2085,2099,2098,2
241,2085,2100,2098,2
241,2087,2102,2100,2
241,2088,2104,2102,2
241,2090,2106,2103,2
241,2090,2106,2105,2
241,2090,2106,2103,2
241,2085,2102,2103,2
241,2083,2100,2100,2
241,2082,2099,2099,2
241,2083,2099,2099,2
241,2083,2100,2099,2
241,2084,2101,2099,2
241,2085,2101,2099,2
241,2085,2102,2100,2
241,2085,2101,2100,2
241,2085,2101,2100,2
241,2083,2101,2100,2
241,2085,2104,2100,2
241,2087,2104,2103,2
241,2087,2106,2105,2
241,2090,2107,2105,2
241,2090,2108,2106,2
241,2089,2106,2103,2
241,2086,2102,2101,2
241,2086,2100,2097,2
241,2084,2100,2097,2
241,2084,2100,2097,2
241,2084,2101,2098,2
241,2085,2101,2098,2
241,2086,2102,2099,2
241,2086,2103,2099,2
241,2085,2103,2099,2
241,2084,2103,2098,2
241,2084,2103,2099,2
241,2086,2104,2099,2
241,2089,2105,2102,2
241,2090,2106,2103,2
241,2091,2107,2104,2
241,2091,2107,2104,2
241,2089,2105,2104,2
241,2086,2105,2098,2
241,2083,2102,2097,2
241,2083,2102,2096,2
241,2085,2102,2097,2
241,2085,2102,2098,2
241,2086,2103,2098,2
241,2086,2103,2099,2
241,2086,2103,2099,2
241,2086,2102,2099,2
241,2086,2102,2098,2
241,2086,2103,2101,2
241,2088,2103,2101,2
241,2088,2106,2103,2
241,2091,2107,2103,2
241,2092,2108,2104,2
241,2092,2108,2104,2
241,2090,2105,2103,2
241,2084,2104,2100,2
241,2084,2101,2099,2
241,2085,2102,2099,2
241,2086,2102,2100,2
241,2086,2102,2100,2
241,2087,2102,2100,2
241,2088,2103,2101,2
241,2088,2104,2101,2
241,2087,2104,2100,2
241,2087,2101,2100,2
241,2088,2102,2100,2
241,2090,2104,2102,2
241,2090,2105,2104,2
241,2091,2107,2104,2
241,2091,2107,2105,2
241,2091,2107,2103,2
241,2086,2104,2103,2
241,2085,2102,2100,2
241,2083,2101,2100,2
241,2084,2101,2100,2
241,2084,2103,2100,2
241,2085,2103,2100,2
241,2086,2103,2100,2
241,2086,2104,2101,2
241,2086,2103,2101,2
241,2086,2104,2100,2
241,2084,2103,2100,2
241,2086,2105,2100,2
241,2089,2105,2104,2
241,2089,2108,2105,2
241,2093,2108,2105,2
241,2093,2109,2105,2
241,2092,2107,2103,2
241,2089,2101,2101,2
241,2089,2101,2098,2
241,2086,2101,2098,2
241,2087,2101,2099,2
241,2087,2102,2099,2
241,2087,2102,2099,2
241,2088,2103,2100,2
241,2088,2104,2101,2
241,2087,2104,2101,2
241,2086,2104,2099,2
241,2086,2104,2100,2
241,2088,2105,2101,2
241,2090,2107,2103,2
241,2091,2108,2105,2
241,2093,2109,2106,2
241,2093,2109,2106,2
241,2090,2106,2106,2
241,2087,2106,2100,2
241,2085,2103,2099,2
241,2085,2103,2098,2
241,2087,2104,2099,2
241,2087,2104,2100,2
241,2087,2104,2100,2
241,2088,2104,2101,2
241,2088,2104,2101,2
241,2088,2103,2101,2
241,2088,2103,2100,2
241,2088,2104,2103,2
241,2090,2104,2103,2
241,2090,2107,2105,2
241,2093,2108,2105,2
241,2093,2108,2107,2
241,2093,2108,2106,2
241,2091,2105,2104,2
241,2086,2104,2101,2
241,2086,2101,2100,2
241,2086,2102,2100,2
241,2087,2102,2101,2
241,2087,2102,2101,2
241,2088,2102,2101,2
241,2089,2104,2102,2
241,2089,2104,2102,2
241,2088,2104,2101,2
241,2088,2102,2101,2
241,2089,2104,2101,2
241,2091,2106,2103,2
241,2092,2107,2105,2
241,2094,2108,2107,2
241,2094,2110,2107,2
241,2094,2109,2105,2
241,2088,2105,2105,2
241,2087,2105,2099,2
241,2086,2104,2099,2
241,2087,2104,2099,2
241,2088,2105,2100,2
241,2088,2105,2100,2
241,2089,2105,2102,2
241,2089,2106,2102,2
241,2088,2105,2102,2
241,2087,2105,2102,2
241,2085,2104,2102,2
241,2087,2107,2102,2
241,2090,2107,2106,2
241,2090,2110,2107,2
241,2093,2110,2107,2
241,2093,2111,2107,2
241,2092,2108,2105,2
241,2089,2104,2103,2
241,2089,2102,2100,2
241,2087,2103,2100,2
241,2087,2103,2102,2
241,2087,2104,2103,2
241,2087,2104,2103,2
241,2088,2105,2103,2
241,2088,2105,2103,2
241,2088,2104,2103,2
241,2087,2104,2101,2
241,2087,2104,2103,2
241,2090,2106,2103,2
241,2093,2108,2105,2
241,2094,2108,2107,2
241,2095,2108,2108,2
241,2095,2109,2107,2
241,2091,2107,2107,2
241,2088,2107,2102,2
241,2086,2104,2101,2
241,2086,2104,2100,2
241,2087,2105,2101,2
241,2087,2105,2102,2
241,2088,2105,2103,2
241,2088,2105,2104,2
241,2088,2105,2103,2
241,2088,2104,2103,2
241,2088,2104,2102,2
241,2088,2105,2104,2
241,2090,2108,2106,2
241,2090,2108,2109,2
241,2093,2110,2109,2
241,2094,2110,2110,2
241,2094,2110,2108,2
241,2092,2107,2106,2
241,2089,2105,2103,2
241,2087,2103,2101,2
241,2088,2104,2101,2
241,2088,2104,2102,2
241,2088,2104,2102,2
241,2089,2104,2102,2
241,2089,2106,2103,2
241,2089,2106,2103,2
241,2088,2106,2103,2
241,2088,2104,2103,2
241,2089,2106,2103,2
241,2092,2108,2105,2
241,2093,2110,2107,2
241,2094,2110,2108,2
241,2095,2111,2109,2
241,2094,2109,2107,2
241,2089,2106,2107,2
241,2088,2106,2102,2
241,2087,2105,2103,2
241,2088,2105,2103,2
241,2089,2106,2103,2
241,2088,2106,2104,2
241,2089,2106,2104,2
241,2089,2107,2104,2
241,2089,2106,2104,2
241,2088,2106,2103,2
241,2087,2105,2104,2
241,2089,2106,2104,2
241,2093,2108,2106,2
241,2093,2111,2107,2
241,2095,2111,2107,2
241,2094,2111,2109,2
241,2093,2108,2106,2
241,2090,2105,2104,2
241,2089,2104,2102,2
241,2087,2105,2102,2
241,2088,2105,2103,2
241,2088,2105,2103,2
241,2089,2105,2103,2
241,2090,2106,2104,2
241,2090,2106,2104,2
241,2090,2105,2104,2
241,2089,2105,2102,2
241,2089,2106,2104,2
241,2093,2108,2104,2
241,2094,2111,2107,2
241,2094,2111,2108,2
241,2095,2111,2109,2
241,2095,2112,2109,2
241,2092,2109,2109,2
241,2089,2109,2103,2
241,2089,2105,2102,2
241,2089,2105,2102,2
241,2089,2106,2103,2
241,2089,2106,2104,2
241,2089,2106,2104,2
241,2089,2106,2106,2
241,2089,2106,2106,2
241,2089,2105,2106,2
241,2089,2105,2105,2
241,2089,2106,2106,2
241,2091,2107,2107,2
241,2091,2110,2110,2
241,2094,2111,2110,2
241,2095,2111,2111,2
241,2095,2110,2109,2
241,2093,2107,2107,2
241,2091,2105,2104,2
241,2088,2104,2104,2
241,2089,2105,2103,2
241,2089,2105,2104,2
241,2089,2106,2104,2
241,2090,2106,2104,2
241,2091,2107,2104,2
241,2091,2106,2104,2
241,2090,2104,2103,2
241,2090,2104,2103,2
241,2091,2107,2103,2
241,2093,2107,2107,2
241,2094,2109,2109,2
241,2096,2110,2110,2
241,2096,2111,2110,2
241,2095,2110,2106,2
241,2090,2107,2106,2
241,2088,2107,2102,2
241,2088,2104,2103,2
241,2089,2105,2103,2
241,2089,2106,2104,2
241,2089,2106,2104,2
241,2090,2107,2104,2
241,2090,2107,2105,2
241,2090,2106,2105,2
241,2089,2106,2104,2
241,2088,2106,2105,2
241,2090,2107,2106,2
241,2093,2109,2108,2
241,2095,2111,2110,2
241,2097,2112,2110,2
241,2096,2112,2110,2
241,2096,2108,2107,2
241,2093,2105,2105,2
241,2092,2104,2104,2
241,2090,2104,2105,2
241,2091,2104,2105,2
241,2091,2105,2105,2
241,2092,2105,2105,2
241,2092,2106,2106,2
241,2092,2106,2106,2
241,2091,2104,2106,2
241,2090,2104,2105,2
241,2090,2105,2106,2
241,2093,2107,2106,2
241,2095,2107,2110,2
241,2095,2109,2111,2
241,2096,2109,2111,2
241,2095,2110,2111,2
241,2093,2105,2111,2
241,2090,2105,2105,2
241,2090,2102,2104,2
241,2090,2103,2104,2
241,2091,2104,2104,2
241,2091,2104,2104,2
241,2091,2104,2104,2
241,2091,2105,2106,2
241,2091,2105,2106,2
241,2090,2104,2106,2
241,2090,2104,2105,2
241,2090,2105,2107,2
241,2093,2106,2108,2
241,2096,2108,2109,2
241,2097,2110,2109,2
241,2097,2110,2111,2
241,2097,2110,2109,2
241,2094,2106,2108,2
241,2091,2104,2105,2
241,2089,2103,2104,2
241,2090,2104,2104,2
241,2090,2104,2104,2
241,2090,2104,2104,2
241,2091,2105,2104,2
241,2091,2106,2105,2
241,2091,2105,2105,2
241,2091,2103,2105,2
241,2091,2103,2105,2
241,2093,2105,2105,2
241,2095,2105,2108,2
241,2095,2108,2110,2
241,2097,2108,2111,2
241,2097,2109,2111,2
241,2096,2108,2109,2
241,2090,2104,2107,2
241,2089,2104,2102,2
241,2089,2102,2102,2
241,2091,2103,2102,2
241,2091,2103,2102,2
241,2091,2103,2103,2
241,2092,2103,2105,2
241,2092,2103,2105,2
241,2092,2102,2105,2
241,2091,2102,2103,2
241,2090,2102,2104,2
241,2093,2104,2105,2
241,2096,2106,2107,2
241,2097,2107,2110,2
241,2098,2108,2110,2
241,2097,2108,2110,2
241,2097,2104,2107,2
241,2093,2102,2105,2
241,2092,2100,2103,2
241,2090,2100,2103,2
241,2091,2100,2104,2
241,2091,2100,2104,2
241,2091,2101,2104,2
241,2092,2101,2105,2
241,2092,2102,2105,2
241,2091,2102,2105,2
241,2091,2102,2103,2
241,2090,2104,2105,2
241,2093,2106,2105,2
241,2095,2106,2109,2
241,2096,2107,2110,2
241,2097,2107,2111,2
241,2096,2108,2110,2
241,2093,2105,2103,2
241,2088,2105,2103,2
241,2088,2100,2102,2
241,2089,2100,2102,2
241,2090,2101,2103,2
241,2090,2101,2103,2
241,2091,2101,2103,2
241,2091,2102,2104,2
241,2091,2102,2104,2
241,2090,2101,2104,2
241,2091,2101,2103,2
241,2091,2102,2104,2
241,2093,2104,2106,2
241,2096,2106,2107,2
241,2096,2108,2107,2
241,2096,2108,2109,2
241,2096,2107,2107,2
241,2093,2103,2105,2
241,2091,2101,2102,2
241,2088,2100,2101,2
241,2089,2102,2101,2
241,2089,2102,2102,2
241,2089,2102,2102,2
241,2090,2103,2102,2
241,2090,2104,2103,2
241,2090,2103,2102,2
241,2089,2101,2102,2
241,2089,2101,2102,2
241,2091,2103,2102,2
241,2093,2103,2105,2
241,2093,2107,2106,2
241,2095,2108,2107,2
241,2095,2109,2107,2
241,2095,2107,2103,2
241,2089,2104,2103,2
241,2088,2104,2099,2
241,2088,2102,2099,2
241,2088,2102,2100,2
241,2088,2102,2100,2
241,2088,2102,2101,2
241,2090,2102,2101,2
241,2090,2104,2101,2
241,2090,2103,2101,2
241,2089,2103,2099,2
241,2088,2103,2101,2
241,2090,2104,2102,2
241,2093,2107,2104,2
241,2095,2109,2105,2
241,2096,2109,2105,2
241,2095,2109,2106,2
241,2094,2107,2103,2
241,2091,2104,2100,2
241,2089,2102,2098,2
241,2088,2102,2100,2
241,2089,2102,2100,2
241,2089,2102,2100,2
241,2090,2103,2100,2
241,2091,2104,2100,2
241,2091,2104,2100,2
241,2091,2103,2100,2
241,2091,2103,2099,2
241,2090,2104,2101,2
241,2093,2106,2101,2
241,2095,2106,2105,2
241,2096,2107,2106,2
241,2097,2108,2106,2
241,2095,2109,2105,2
241,2093,2104,2105,2
241,2090,2104,2098,2
241,2090,2101,2098,2
241,2090,2102,2098,2
241,2090,2103,2099,2
241,2091,2103,2099,2
241,2091,2103,2099,2
241,2091,2104,2101,2
241,2091,2104,2101,2
241,2090,2103,2101,2
241,2090,2103,2100,2
241,2091,2104,2102,2
241,2093,2106,2103,2
241,2095,2108,2104,2
241,2096,2110,2104,2
241,2096,2110,2106,2
241,2096,2108,2104,2
241,2091,2105,2104,2
241,2089,2103,2101,2
241,2088,2102,2100,2
241,2089,2103,2099,2
241,2089,2104,2100,2
241,2089,2104,2100,2
241,2091,2104,2100,2
241,2091,2105,2101,2
241,2091,2104,2101,2
241,2090,2103,2100,2
241,2092,2103,2100,2
241,2092,2107,2100,2
241,2094,2107,2103,2
241,2094,2110,2105,2
241,2096,2110,2106,2
241,2096,2111,2106,2
241,2096,2109,2104,2
241,2093,2102,2102,2
241,2091,2102,2097,2
241,2091,2102,2098,2
241,2093,2103,2098,2
241,2093,2104,2099,2
241,2093,2104,2099,2
241,2093,2104,2099,2
241,2093,2105,2100,2
241,2093,2105,2100,2
241,2092,2105,2099,2
241,2092,2105,2100,2
241,2093,2107,2101,2
241,2095,2109,2103,2
241,2097,2110,2105,2
241,2098,2111,2106,2
241,2096,2111,2106,2
241,2096,2107,2103,2
241,2093,2104,2100,2
241,2091,2103,2098,2
241,2090,2103,2099,2
241,2091,2104,2099,2
241,2091,2104,2099,2
241,2091,2105,2099,2
241,2091,2105,2100,2
241,2092,2105,2100,2
241,2091,2104,2100,2
241,2091,2104,2099,2
241,2091,2105,2103,2
241,2094,2107,2103,2
241,2096,2107,2106,2
241,2096,2110,2107,2
241,2096,2110,2107,2
241,2094,2110,2106,2
241,2092,2107,2103,2
241,2087,2107,2100,2
241,2087,2103,2099,2
241,2089,2104,2099,2
241,2089,2104,2100,2
241,2089,2104,2100,2
241,2090,2105,2100,2
241,2091,2106,2101,2
241,2091,2106,2101,2
241,2089,2105,2101,2
241,2090,2105,2100,2
241,2090,2107,2102,2
241,2092,2109,2103,2
241,2094,2111,2105,2
241,2095,2111,2107,2
241,2096,2111,2107,2
241,2096,2110,2105,2
241,2091,2107,2105,2
241,2089,2105,2101,2
241,2088,2104,2101,2
241,2089,2105,2100,2
241,2090,2106,2100,2
241,2090,2106,2100,2
241,2092,2107,2100,2
241,2092,2107,2101,2
241,2092,2106,2101,2
241,2091,2105,2100,2
241,2092,2105,2100,2
241,2093,2109,2100,2
241,2095,2109,2104,2
241,2095,2112,2106,2
241,2098,2112,2106,2
241,2098,2113,2106,2
241,2097,2111,2104,2
241,2094,2107,2102,2
241,2092,2105,2098,2
241,2092,2105,2099,2
241,2092,2105,2099,2
241,2092,2106,2099,2
241,2092,2106,2100,2
241,2093,2106,2100,2
241,2093,2107,2101,2
241,2093,2106,2101,2
241,2092,2106,2100,2
241,2092,2107,2101,2
241,2094,2109,2102,2
241,2096,2111,2104,2
241,2097,2112,2106,2
241,2098,2113,2106,2
241,2096,2113,2106,2
241,2096,2109,2103,2
241,2089,2106,2103,2
241,2089,2105,2101,2
241,2089,2105,2102,2
241,2090,2105,2102,2
241,2090,2106,2101,2
241,2090,2107,2101,2
241,2091,2107,2102,2
241,2091,2108,2102,2
241,2090,2107,2101,2
241,2090,2107,2100,2
241,2090,2108,2102,2
241,2094,2111,2103,2
241,2095,2111,2106,2
241,2095,2114,2107,2
241,2096,2114,2107,2
241,2094,2114,2106,2
241,2092,2111,2103,2
241,2090,2107,2100,2
241,2090,2107,2098,2
241,2090,2108,2098,2
241,2090,2108,2101,2
241,2090,2108,2101,2
241,2090,2108,2101,2
241,2091,2110,2102,2
241,2092,2109,2101,2
241,2090,2108,2101,2
241,2091,2108,2101,2
241,2091,2110,2103,2
241,2094,2112,2104,2
241,2096,2114,2106,2
241,2098,2115,2107,2
241,2099,2115,2107,2
241,2099,2114,2104,2
241,2093,2110,2104,2
241,2091,2110,2099,2
241,2090,2109,2100,2
241,2091,2109,2100,2
241,2093,2110,2101,2
241,2093,2110,2101,2
241,2094,2110,2101,2
241,2094,2110,2102,2
241,2094,2110,2102,2
241,2093,2109,2101,2
241,2094,2109,2102,2
241,2095,2112,2102,2
241,2097,2112,2106,2
241,2097,2115,2107,2
241,2100,2116,2107,2
241,2100,2117,2108,2
241,2100,2115,2105,2
241,2096,2111,2102,2
241,2094,2109,2099,2
241,2094,2108,2101,2
241,2096,2109,2101,2
241,2096,2110,2101,2
241,2096,2110,2102,2
241,2096,2110,2102,2
241,2096,2111,2103,2
241,2096,2110,2103,2
241,2095,2110,2102,2
241,2095,2111,2103,2
241,2097,2113,2104,2
241,2099,2115,2107,2
241,2101,2116,2109,2
241,2102,2117,2109,2
241,2100,2117,2109,2
241,2100,2112,2106,2
241,2094,2110,2106,2
241,2094,2108,2104,2
241,2094,2108,2104,2
241,2095,2109,2104,2
241,2095,2109,2103,2
241,2096,2111,2103,2
241,2096,2111,2105,2
241,2097,2111,2105,2
241,2097,2110,2104,2
241,2097,2110,2104,2
241,2097,2111,2107,2
241,2101,2114,2107,2
241,2102,2114,2110,2
241,2102,2117,2111,2
241,2103,2117,2111,2
241,2100,2117,2111,2
241,2099,2114,2108,2
241,2095,2114,2105,2
241,2095,2111,2104,2
241,2096,2112,2104,2
241,2097,2112,2105,2
241,2097,2112,2105,2
241,2098,2113,2105,2
241,2098,2114,2106,2
241,2098,2113,2105,2
241,2098,2112,2105,2
241,2099,2112,2105,2
241,2100,2114,2107,2
241,2102,2116,2108,2
241,2103,2118,2111,2
241,2105,2119,2112,2
241,2105,2119,2112,2
241,2105,2117,2110,2
241,2100,2114,2110,2
241,2098,2112,2107,2
241,2098,2111,2107,2
241,2099,2112,2106,2
241,2099,2113,2106,2
241,2099,2112,2106,2
241,2101,2112,2106,2
241,2100,2112,2107,2
241,2100,2112,2106,2
241,2099,2111,2105,2
241,2102,2112,2106,2
241,2102,2115,2106,2
241,2104,2115,2111,2
241,2104,2118,2113,2
241,2105,2118,2113,2
241,2104,2119,2113,2
241,2103,2117,2111,2
241,2100,2111,2108,2
241,2098,2111,2104,2
241,2098,2111,2105,2
241,2099,2111,2106,2
241,2099,2112,2107,2
241,2099,2112,2108,2
241,2100,2113,2108,2
241,2100,2113,2108,2
241,2099,2112,2108,2
241,2098,2112,2106,2
241,2098,2112,2108,2
241,2100,2114,2109,2
241,2102,2116,2111,2
241,2104,2117,2113,2
241,2105,2118,2113,2
241,2103,2118,2112,2
241,2103,2113,2109,2
241,2099,2110,2106,2
241,2098,2109,2105,2
241,2097,2110,2106,2
241,2098,2110,2106,2
241,2098,2111,2106,2
241,2098,2111,2106,2
241,2099,2111,2108,2
241,2099,2111,2108,2
241,2098,2110,2107,2
241,2098,2110,2106,2
241,2098,2113,2108,2
241,2102,2115,2108,2
241,2103,2115,2112,2
241,2104,2116,2113,2
241,2104,2116,2114,2
241,2101,2116,2113,2
241,2099,2113,2107,2
241,2095,2113,2107,2
241,2095,2110,2107,2
241,2095,2111,2107,2
241,2095,2112,2108,2
241,2096,2112,2109,2
241,2097,2112,2109,2
241,2097,2113,2109,2
241,2097,2112,2108,2
241,2096,2111,2108,2
241,2097,2111,2108,2
241,2098,2113,2110,2
241,2100,2115,2111,2
241,2103,2117,2112,2
241,2103,2118,2112,2
241,2103,2118,2113,2
241,2103,2116,2111,2
241,2099,2113,2109,2
241,2097,2111,2107,2
241,2095,2111,2107,2
241,2096,2112,2107,2
241,2096,2112,2107,2
241,2096,2112,2108,2
241,2097,2113,2108,2
241,2097,2114,2109,2
241,2097,2113,2109,2
241,2096,2111,2108,2
241,2096,2111,2109,2
241,2100,2114,2109,2
241,2102,2114,2112,2
241,2103,2116,2114,2
241,2104,2117,2115,2
241,2103,2118,2115,2
241,2102,2116,2109,2
241,2096,2113,2109,2
241,2095,2113,2106,2
241,2095,2112,2107,2
241,2096,2112,2107,2
241,2096,2112,2108,2
241,2096,2112,2109,2
241,2097,2112,2109,2
241,2097,2113,2109,2
241,2096,2112,2109,2
241,2096,2112,2107,2
241,2096,2113,2109,2
241,2099,2115,2110,2
241,2102,2117,2112,2
241,2103,2119,2113,2
241,2104,2119,2113,2
241,2102,2119,2112,2
241,2100,2116,2109,2
241,2098,2113,2107,2
241,2098,2112,2106,2
241,2098,2112,2108,2
241,2098,2112,2108,2
241,2098,2113,2108,2
241,2099,2113,2108,2
241,2100,2114,2109,2
241,2100,2113,2109,2
241,2100,2112,2109,2
241,2100,2112,2108,2
241,2100,2115,2110,2
241,2103,2117,2110,2
241,2105,2119,2113,2
241,2106,2120,2114,2
241,2106,2119,2115,2
241,2102,2119,2114,2
241,2102,2114,2114,2
241,2100,2114,2108,2
241,2100,2112,2108,2
241,2100,2113,2108,2
241,2100,2114,2109,2
241,2100,2114,2109,2
241,2101,2115,2109,2
241,2101,2115,2110,2
241,2101,2114,2109,2
241,2100,2113,2108,2
241,2101,2113,2109,2
241,2103,2114,2112,2
241,2105,2118,2113,2
241,2105,2118,2115,2
241,2107,2119,2115,2
241,2107,2119,2116,2
241,2106,2118,2113,2
241,2103,2114,2111,2
241,2101,2112,2108,2
241,2100,2112,2109,2
241,2101,2113,2109,2
241,2101,2113,2109,2
241,2101,2113,2109,2
241,2102,2114,2109,2
241,2102,2115,2109,2
241,2102,2115,2108,2
241,2100,2115,2108,2
241,2100,2115,2109,2
241,2103,2117,2109,2
241,2105,2119,2111,2
241,2107,2120,2113,2
241,2108,2120,2115,2
241,2106,2121,2115,2
241,2106,2116,2112,2
241,2100,2114,2112,2
241,2099,2114,2108,2
241,2099,2114,2109,2
241,2100,2114,2109,2
241,2100,2114,2109,2
241,2100,2115,2109,2
241,2101,2115,2110,2
241,2101,2115,2110,2
241,2101,2114,2110,2
241,2101,2114,2109,2
241,2101,2115,2111,2
241,2103,2118,2112,2
241,2105,2118,2115,2
241,2105,2120,2116,2
241,2106,2120,2116,2
241,2104,2120,2115,2
241,2103,2117,2112,2
241,2101,2113,2109,2
241,2101,2113,2107,2
241,2101,2114,2107,2
241,2101,2114,2109,2
241,2102,2114,2109,2
241,2102,2114,2109,2
241,2102,2115,2110,2
241,2102,2115,2109,2
241,2101,2114,2109,2
241,2102,2114,2109,2
241,2102,2116,2111,2
241,2105,2118,2112,2
241,2107,2120,2114,2
241,2108,2121,2115,2
241,2109,2121,2116,2
241,2109,2119,2114,2
241,2104,2116,2114,2
241,2102,2114,2111,2
241,2101,2114,2111,2
241,2102,2114,2111,2
241,2103,2115,2111,2
241,2103,2115,2111,2
241,2104,2116,2111,2
241,2104,2116,2112,2
241,2104,2116,2111,2
241,2103,2115,2110,2
241,2104,2115,2110,2
241,2105,2118,2110,2
241,2107,2118,2114,2
241,2107,2121,2116,2
241,2109,2122,2116,2
241,2109,2122,2117,2
241,2108,2120,2115,2
241,2105,2117,2112,2
241,2103,2115,2109,2
241,2103,2114,2110,2
241,2104,2115,2110,2
241,2104,2116,2110,2
241,2103,2114,2108,2
241,2101,2112,2106,2
241,2097,2111,2105,2
241,2097,2107,2105,2
241,2095,2107,2101,2
241,2095,2106,2102,2
241,2096,2108,2103,2
241,2098,2110,2105,2
241,2100,2111,2107,2
241,2100,2111,2107,2
241,2099,2111,2106,2
241,2099,2106,2103,2
241,2093,2104,2103,2
241,2092,2103,2101,2
241,2092,2104,2101,2
241,2093,2105,2101,2
241,2093,2105,2101,2
241,2094,2106,2101,2
241,2095,2106,2102,2
241,2095,2106,2102,2
241,2095,2105,2102,2
241,2095,2105,2101,2
241,2095,2106,2103,2
241,2098,2108,2104,2
241,2100,2108,2107,2
241,2100,2111,2108,2
241,2100,2111,2108,2
241,2098,2111,2107,2
241,2097,2108,2104,2
241,2094,2104,2101,2
241,2094,2104,2099,2
241,2094,2105,2099,2
241,2094,2105,2101,2
241,2094,2105,2101,2
241,2094,2106,2101,2
241,2094,2107,2102,2
241,2095,2107,2102,2
241,2094,2105,2102,2
241,2095,2105,2101,2
241,2095,2108,2103,2
241,2097,2110,2104,2
241,2098,2112,2106,2
241,2100,2112,2107,2
241,2100,2111,2107,2
241,2100,2111,2103,2
241,2095,2108,2103,2
241,2093,2108,2099,2
241,2092,2107,2100,2
241,2093,2107,2100,2
241,2094,2107,2100,2
241,2094,2107,2101,2
241,2095,2107,2101,2
241,2095,2107,2102,2
241,2095,2107,2101,2
241,2094,2106,2100,2
241,2095,2106,2101,2
241,2097,2108,2103,2
241,2099,2108,2105,2
241,2099,2111,2106,2
241,2100,2112,2106,2
241,2100,2112,2107,2
241,2099,2110,2104,2
241,2096,2107,2101,2
241,2094,2105,2100,2
241,2093,2105,2100,2
241,2094,2105,2100,2
241,2094,2105,2100,2
241,2094,2105,2100,2
241,2094,2105,2100,2
241,2093,2105,2100,2
241,2093,2104,2098,2
241,2091,2104,2098,2
241,2091,2104,2099,2
241,2094,2106,2099,2
241,2095,2107,2101,2
241,2096,2107,2102,2
241,2096,2107,2102,2
241,2093,2107,2101,2
241,2093,2103,2098,2
241,2088,2102,2098,2
241,2088,2102,2097,2
241,2088,2102,2098,2
241,2089,2102,2098,2
241,2090,2102,2098,2
241,2090,2103,2098,2
241,2091,2103,2099,2
241,2091,2103,2099,2
241,2090,2102,2099,2
241,2090,2102,2098,2
241,2090,2103,2099,2
241,2092,2104,2099,2
241,2095,2106,2101,2
241,2095,2108,2102,2
241,2095,2107,2102,2
241,2092,2107,2100,2
241,2091,2103,2097,2
241,2089,2101,2094,2
241,2089,2100,2094,2
241,2089,2102,2094,2
241,2089,2102,2096,2
241,2089,2102,2096,2
241,2090,2103,2096,2
241,2090,2104,2097,2
241,2090,2103,2097,2
241,2090,2102,2097,2
241,2091,2101,2097,2
241,2091,2104,2098,2
241,2095,2106,2098,2
241,2096,2106,2102,2
241,2097,2107,2103,2
241,2097,2106,2103,2
241,2094,2105,2100,2
241,2091,2100,2100,2
241,2089,2100,2095,2
241,2089,2100,2095,2
241,2090,2100,2095,2
241,2090,2101,2095,2
241,2091,2101,2096,2
241,2091,2102,2096,2
241,2091,2103,2097,2
241,2091,2103,2096,2
241,2089,2102,2096,2
241,2091,2102,2097,2
241,2093,2104,2099,2
241,2094,2106,2100,2
241,2095,2108,2102,2
241,2096,2108,2102,2
241,2095,2108,2102,2
241,2095,2105,2099,2
241,2088,2102,2099,2
241,2087,2100,2096,2
241,2087,2100,2096,2
241,2089,2101,2096,2
241,2089,2101,2096,2
241,2089,2102,2096,2
241,2090,2103,2096,2
241,2090,2103,2096,2
241,2090,2102,2095,2
241,2089,2102,2094,2
241,2091,2102,2095,2
241,2093,2104,2099,2
241,2096,2104,2099,2
241,2096,2108,2100,2
241,2097,2108,2100,2
241,2095,2108,2100,2
241,2093,2105,2097,2
241,2090,2102,2094,2
241,2089,2100,2093,2
241,2089,2102,2094,2
241,2090,2102,2094,2
241,2090,2102,2094,2
241,2090,2103,2095,2
241,2091,2103,2095,2
241,2090,2103,2095,2
241,2090,2102,2093,2
241,2090,2102,2093,2
241,2090,2104,2094,2
241,2093,2105,2094,2
241,2094,2106,2096,2
241,2095,2107,2097,2
241,2095,2107,2097,2
241,2092,2107,2096,2
241,2091,2102,2093,2
241,2089,2101,2093,2
241,2089,2101,2091,2
241,2090,2102,2092,2
241,2090,2102,2092,2
241,2090,2103,2092,2
241,2091,2104,2094,2
241,2092,2104,2094,2
241,2092,2104,2093,2
241,2090,2103,2093,2
241,2090,2103,2092,2
241,2091,2104,2094,2
241,2092,2105,2094,2
241,2092,2107,2095,2
241,2094,2108,2095,2
241,2093,2107,2095,2
241,2091,2107,2092,2
241,2090,2105,2090,2
241,2089,2104,2088,2
241,2089,2103,2089,2
241,2090,2103,2091,2
241,2091,2103,2091,2
241,2091,2104,2091,2
241,2091,2105,2091,2
241,2091,2106,2092,2
241,2091,2106,2092,2
241,2089,2104,2091,2
241,2091,2104,2092,2
241,2091,2106,2093,2
241,2093,2107,2093,2
241,2093,2107,2095,2
241,2095,2107,2095,2
241,2094,2106,2094,2
241,2091,2105,2093,2
241,2090,2102,2093,2
241,2089,2102,2089,2
241,2089,2102,2090,2
241,2091,2103,2090,2
241,2091,2104,2091,2
241,2091,2104,2092,2
241,2091,2104,2092,2
241,2091,2104,2092,2
241,2091,2104,2091,2
241,2089,2104,2091,2
241,2091,2104,2093,2
241,2092,2105,2095,2
241,2093,2106,2095,2
241,2093,2107,2096,2
241,2094,2107,2096,2
241,2093,2107,2096,2
241,2093,2103,2093,2
241,2089,2101,2093,2
241,2089,2100,2092,2
241,2089,2101,2093,2
241,2089,2102,2093,2
241,2089,2103,2093,2
241,2090,2104,2094,2
241,2092,2104,2094,2
241,2092,2104,2094,2
241,2092,2103,2093,2
241,2091,2103,2092,2
241,2092,2104,2094,2
241,2093,2105,2096,2
241,2094,2105,2096,2
241,2094,2107,2096,2
241,2094,2107,2096,2
241,2092,2107,2095,2
241,2091,2104,2093,2
241,2089,2103,2091,2
241,2089,2102,2091,2
241,2090,2103,2092,2
241,2091,2103,2092,2
241,2091,2103,2093,2
241,2092,2104,2094,2
241,2092,2104,2094,2
241,2091,2104,2094,2
241,2091,2103,2093,2
241,2092,2103,2093,2
241,2092,2105,2095,2
241,2095,2107,2095,2
241,2096,2108,2097,2
241,2097,2109,2099,2
241,2097,2108,2099,2
241,2092,2108,2098,2
241,2092,2102,2095,2
241,2088,2101,2095,2
241,2089,2101,2094,2
241,2090,2102,2095,2
241,2090,2102,2094,2
241,2090,2103,2094,2
241,2091,2103,2096,2
241,2092,2103,2096,2
241,2092,2103,2095,2
241,2090,2102,2095,2
241,2091,2102,2095,2
241,2093,2104,2098,2
241,2095,2106,2099,2
241,2096,2107,2101,2
241,2097,2109,2101,2
241,2096,2107,2101,2
241,2092,2107,2097,2
241,2090,2103,2095,2
241,2088,2102,2093,2
241,2089,2102,2093,2
241,2090,2102,2093,2
241,2090,2102,2094,2
241,2090,2103,2094,2
241,2091,2104,2094,2
241,2090,2104,2094,2
241,2090,2103,2094,2
241,2089,2103,2093,2
241,2092,2103,2094,2
241,2092,2106,2096,2
241,2096,2108,2096,2
241,2097,2108,2100,2
241,2098,2108,2100,2
241,2096,2106,2100,2
241,2092,2104,2097,2
241,2089,2100,2097,2
241,2089,2100,2093,2
241,2089,2101,2094,2
241,2090,2101,2094,2
241,2090,2101,2094,2
241,2090,2102,2095,2
241,2090,2102,2095,2
241,2090,2102,2095,2
241,2090,2101,2094,2
241,2090,2102,2094,2
241,2092,2102,2097,2
241,2094,2105,2100,2
241,2095,2107,2101,2
241,2095,2108,2102,2
241,2096,2108,2100,2
241,2093,2108,2100,2
241,2093,2102,2096,2
241,2088,2101,2096,2
241,2088,2100,2095,2
241,2088,2101,2096,2
241,2089,2101,2096,2
241,2090,2101,2096,2
241,2090,2103,2097,2
241,2092,2103,2097,2
241,2091,2103,2097,2
241,2090,2102,2096,2
241,2091,2103,2095,2
241,2093,2104,2097,2
241,2095,2106,2101,2
241,2097,2106,2101,2
241,2097,2108,2102,2
241,2097,2107,2102,2
241,2094,2106,2100,2
241,2092,2103,2097,2
241,2089,2101,2094,2
241,2090,2100,2094,2
241,2090,2102,2095,2
241,2090,2102,2095,2
241,2091,2102,2096,2
241,2091,2103,2097,2
241,2091,2103,2097,2
241,2090,2103,2097,2
241,2090,2101,2097,2
241,2091,2101,2097,2
241,2091,2104,2099,2
241,2095,2106,2099,2
241,2096,2107,2101,2
241,2097,2108,2102,2
241,2096,2107,2102,2
241,2093,2106,2098,2
241,2093,2101,2096,2
241,2089,2101,2096,2
241,2090,2101,2097,2
241,2090,2101,2097,2
241,2090,2101,2097,2
241,2091,2101,2097,2
241,2092,2102,2097,2
241,2091,2102,2097,2
241,2091,2101,2096,2
241,2090,2101,2096,2
241,2091,2101,2098,2
241,2093,2103,2100,2
241,2095,2105,2101,2
241,2096,2107,2103,2
241,2096,2108,2103,2
241,2093,2106,2103,2
241,2090,2104,2100,2
241,2088,2102,2098,2
241,2088,2101,2096,2
241,2090,2101,2097,2
241,2090,2101,2097,2
241,2090,2101,2097,2
241,2090,2101,2098,2
241,2090,2102,2098,2
241,2090,2102,2098,2
241,2090,2101,2097,2
241,2090,2103,2096,2
241,2092,2103,2099,2
241,2092,2106,2102,2
241,2096,2107,2102,2
241,2096,2108,2104,2
241,2096,2108,2103,2
241,2094,2105,2102,2
241,2088,2102,2099,2
241,2088,2099,2099,2
241,2088,2099,2097,2
241,2088,2101,2098,2
241,2089,2101,2098,2
241,2090,2101,2098,2
241,2090,2102,2099,2
241,2091,2102,2099,2
241,2090,2102,2099,2
241,2090,2100,2098,2
241,2091,2101,2098,2
241,2093,2102,2100,2
241,2095,2104,2102,2
241,2096,2105,2104,2
241,2096,2106,2105,2
241,2096,2105,2105,2
241,2093,2105,2101,2
241,2093,2100,2098,2
241,2091,2099,2096,2
241,2091,2099,2096,2
241,2091,2100,2097,2
241,2091,2100,2097,2
241,2091,2100,2097,2
241,2091,2102,2098,2
241,2091,2101,2098,2
241,2090,2101,2098,2
241,2089,2100,2098,2
241,2091,2102,2098,2
241,2091,2103,2101,2
241,2094,2105,2101,2
241,2095,2105,2104,2
241,2095,2106,2104,2
241,2095,2105,2104,2
241,2092,2104,2101,2
241,2090,2101,2098,2
241,2089,2099,2096,2
241,2090,2099,2096,2
241,2090,2100,2096,2
241,2090,2100,2096,2
241,2090,2100,2097,2
241,2091,2101,2098,2
241,2091,2101,2098,2
241,2091,2100,2096,2
241,2090,2100,2096,2
241,2092,2100,2099,2
241,2092,2104,2101,2
241,2094,2105,2102,2
241,2095,2106,2103,2
241,2096,2106,2103,2
241,2095,2103,2103,2
241,2091,2103,2098,2
241,2091,2099,2096,2
241,2089,2099,2096,2
241,2089,2100,2097,2
241,2090,2100,2097,2
241,2090,2100,2097,2
241,2090,2101,2098,2
241,2091,2101,2098,2
241,2091,2101,2098,2
241,2091,2100,2097,2
241,2091,2101,2096,2
241,2093,2102,2098,2
241,2095,2104,2100,2
241,2096,2105,2101,2
241,2096,2105,2102,2
241,2096,2105,2101,2
241,2094,2102,2100,2
241,2091,2100,2097,2
241,2089,2099,2097,2
241,2089,2101,2097,2
241,2089,2101,2098,2
241,2090,2101,2098,2
241,2090,2101,2098,2
241,2091,2102,2099,2
241,2091,2102,2099,2
241,2091,2102,2099,2
241,2091,2101,2098,2
241,2091,2102,2098,2
241,2092,2102,2100,2
241,2092,2105,2101,2
241,2093,2105,2102,2
241,2093,2105,2102,2
241,2093,2105,2101,2
241,2091,2100,2099,2
241,2091,2100,2095,2
241,2088,2100,2095,2
241,2089,2100,2096,2
241,2090,2101,2097,2
241,2090,2101,2097,2
241,2091,2101,2098,2
241,2092,2102,2099,2
241,2092,2102,2099,2
241,2091,2102,2097,2
241,2091,2101,2097,2
241,2091,2102,2097,2
241,2093,2103,2098,2
241,2094,2104,2100,2
241,2095,2105,2101,2
241,2095,2105,2101,2
241,2094,2104,2101,2
241,2092,2104,2098,2
241,2090,2102,2096,2
241,2090,2101,2096,2
241,2090,2101,2097,2
241,2091,2101,2098,2
241,2091,2101,2098,2
241,2092,2101,2098,2
241,2092,2102,2098,2
241,2092,2102,2098,2
241,2091,2102,2097,2
241,2091,2102,2097,2
241,2092,2104,2097,2
241,2092,2104,2099,2
241,2094,2105,2099,2
241,2094,2105,2101,2
241,2095,2105,2101,2
241,2094,2104,2100,2
241,2091,2103,2098,2
241,2089,2101,2096,2
241,2089,2101,2096,2
241,2090,2101,2098,2
241,2090,2102,2098,2
241,2090,2102,2097,2
241,2090,2102,2098,2
241,2091,2103,2098,2
241,2091,2103,2098,2
241,2091,2101,2096,2
241,2090,2102,2096,2
241,2091,2102,2098,2
241,2092,2104,2099,2
241,2093,2105,2100,2
241,2093,2105,2101,2
241,2094,2105,2100,2
241,2092,2103,2100,2
241,2090,2103,2096,2
241,2090,2100,2096,2
241,2090,2100,2095,2
241,2090,2101,2096,2
241,2090,2101,2097,2
241,2091,2101,2097,2
241,2091,2102,2097,2
241,2091,2102,2097,2
241,2090,2102,2097,2
241,2090,2101,2096,2
241,2090,2102,2096,2
241,2091,2103,2097,2
241,2093,2104,2100,2
241,2095,2105,2100,2
241,2095,2105,2100,2
241,2095,2105,2099,2
241,2093,2102,2097,2
241,2091,2100,2096,2
241,2090,2100,2096,2
241,2090,2100,2096,2
241,2090,2101,2096,2
241,2091,2101,2096,2
241,2092,2101,2097,2
241,2092,2102,2097,2
241,2092,2102,2097,2
241,2091,2102,2096,2
241,2090,2101,2096,2
241,2092,2102,2096,2
241,2093,2102,2098,2
241,2094,2103,2098,2
241,2095,2104,2099,2
241,2094,2105,2100,2
241,2094,2104,2097,2
241,2089,2104,2097,2
241,2089,2101,2096,2
241,2088,2101,2096,2
241,2089,2101,2096,2
241,2090,2101,2096,2
241,2090,2102,2096,2
241,2091,2102,2096,2
241,2092,2103,2096,2
241,2092,2102,2096,2
241,2091,2102,2095,2
241,2091,2102,2096,2
241,2091,2103,2096,2
241,2092,2104,2098,2
241,2093,2105,2099,2
241,2094,2105,2099,2
241,2094,2105,2099,2
241,2092,2104,2099,2
241,2090,2104,2096,2
241,2089,2102,2095,2
241,2089,2102,2094,2
241,2090,2102,2095,2
241,2091,2102,2095,2
241,2091,2102,2095,2
241,2091,2102,2096,2
241,2091,2102,2096,2
241,2091,2102,2096,2
241,2090,2101,2095,2
241,2090,2101,2096,2
241,2092,2101,2097,2
241,2092,2104,2098,2
241,2094,2105,2098,2
241,2095,2105,2099,2
241,2095,2105,2099,2
241,2093,2103,2098,2
241,2091,2101,2096,2
241,2090,2100,2096,2
241,2090,2101,2096,2
241,2090,2101,2096,2
241,2090,2101,2096,2
241,2090,2102,2096,2
241,2090,2102,2097,2
241,2091,2102,2097,2
241,2090,2102,2096,2
241,2090,2100,2095,2
241,2091,2101,2095,2
241,2092,2101,2097,2
241,2093,2103,2098,2
241,2094,2104,2099,2
241,2094,2105,2099,2
241,2094,2105,2098,2
241,2091,2103,2098,2
241,2090,2103,2094,2
241,2090,2101,2094,2
241,2090,2101,2094,2
241,2090,2102,2095,2
241,2091,2102,2096,2
241,2092,2102,2096,2
241,2092,2103,2096,2
241,2092,2103,2096,2
241,2091,2103,2096,2
241,2091,2102,2096,2
241,2092,2103,2096,2
241,2093,2104,2097,2
241,2094,2105,2098,2
241,2095,2105,2098,2
241,2095,2105,2099,2
241,2095,2103,2098,2
241,2092,2101,2096,2
241,2090,2100,2095,2
241,2090,2100,2095,2
241,2090,2102,2095,2
241,2090,2102,2096,2
241,2091,2102,2096,2
241,2091,2102,2097,2
241,2092,2103,2097,2
241,2092,2103,2096,2
241,2091,2102,2095,2
241,2091,2102,2096,2
241,2093,2103,2096,2
241,2094,2103,2098,2
241,2094,2105,2099,2
241,2094,2105,2099,2
241,2094,2106,2099,2
241,2093,2104,2097,2
241,2091,2101,2095,2
241,2091,2101,2093,2
241,2090,2101,2093,2
241,2091,2101,2094,2
241,2092,2101,2095,2
241,2092,2101,2095,2
241,2092,2102,2095,2
241,2093,2102,2095,2
241,2092,2101,2095,2
241,2092,2101,2094,2
241,2092,2101,2095,2
241,2093,2102,2095,2
241,2093,2103,2096,2
241,2094,2104,2097,2
241,2094,2104,2098,2
241,2094,2104,2097,2
241,2092,2103,2097,2
241,2090,2103,2093,2
241,2090,2101,2093,2
241,2090,2102,2092,2
241,2090,2102,2093,2
241,2091,2102,2094,2
241,2092,2103,2094,2
241,2092,2103,2095,2
241,2092,2103,2095,2
241,2091,2102,2094,2
241,2091,2101,2094,2
241,2091,2102,2096,2
241,2092,2104,2096,2
241,2092,2105,2097,2
241,2094,2106,2097,2
241,2094,2106,2098,2
241,2094,2106,2097,2
241,2092,2103,2096,2
241,2090,2101,2094,2
241,2090,2100,2094,2
241,2091,2101,2094,2
241,2091,2101,2095,2
241,2091,2101,2095,2
241,2091,2102,2095,2
241,2091,2103,2096,2
241,2092,2103,2096,2
241,2091,2101,2095,2
241,2091,2101,2095,2
241,2092,2102,2095,2
241,2093,2102,2096,2
241,2094,2104,2097,2
241,2094,2105,2097,2
241,2094,2106,2098,2
241,2094,2105,2097,2
241,2090,2103,2096,2
241,2090,2103,2093,2
241,2090,2102,2093,2
241,2091,2103,2093,2
241,2091,2103,2094,2
241,2092,2103,2095,2
241,2093,2103,2095,2
241,2093,2104,2096,2
241,2093,2104,2096,2
241,2092,2104,2095,2
241,2092,2103,2095,2
241,2093,2104,2095,2
241,2094,2105,2097,2
241,2095,2105,2099,2
241,2096,2105,2099,2
241,2095,2105,2098,2
241,2095,2103,2096,2
241,2092,2102,2094,2
241,2091,2101,2093,2
241,2091,2101,2094,2
241,2091,2102,2094,2
241,2091,2103,2095,2
241,2091,2103,2095,2
241,2091,2103,2096,2
241,2091,2103,2096,2
241,2091,2103,2096,2
241,2090,2103,2096,2
241,2090,2103,2097,2
241,2092,2104,2097,2
241,2093,2104,2098,2
241,2093,2105,2099,2
241,2094,2105,2099,2
241,2093,2105,2099,2
241,2092,2103,2097,2
241,2090,2101,2095,2
241,2090,2100,2095,2
241,2090,2102,2095,2
241,2090,2102,2096,2
241,2090,2102,2096,2
241,2090,2103,2096,2
241,2091,2103,2096,2
241,2092,2103,2096,2
241,2091,2102,2096,2
241,2091,2102,2094,2
241,2091,2104,2095,2
241,2093,2105,2095,2
241,2094,2106,2097,2
241,2095,2107,2098,2
241,2095,2107,2098,2
241,2092,2107,2098,2
241,2092,2102,2098,2
241,2090,2102,2094,2
241,2090,2101,2095,2
241,2090,2102,2095,2
241,2090,2103,2095,2
241,2090,2103,2095,2
241,2090,2104,2095,2
241,2091,2104,2096,2
241,2091,2104,2096,2
241,2090,2103,2096,2
241,2091,2103,2096,2
241,2092,2104,2097,2
241,2093,2105,2097,2
241,2094,2106,2098,2
241,2094,2107,2098,2
241,2094,2107,2099,2
241,2094,2105,2098,2
241,2092,2103,2097,2
241,2091,2102,2096,2
241,2090,2102,2096,2
241,2091,2103,2096,2
241,2091,2103,2097,2
241,2091,2103,2098,2
241,2091,2103,2098,2
241,2091,2104,2098,2
241,2091,2103,2098,2
241,2090,2103,2097,2
241,2090,2103,2097,2
241,2092,2104,2097,2
241,2093,2104,2099,2
241,2093,2106,2100,2
241,2094,2106,2100,2
241,2094,2107,2100,2
241,2094,2106,2099,2
241,2092,2102,2098,2
241,2091,2102,2096,2
241,2091,2102,2097,2
241,2091,2102,2097,2
241,2091,2102,2097,2
241,2091,2103,2098,2
241,2091,2103,2098,2
241,2091,2103,2098,2
241,2091,2103,2098,2
241,2090,2103,2097,2
241,2090,2103,2098,2
241,2091,2104,2098,2
241,2092,2106,2100,2
241,2093,2107,2101,2
241,2094,2107,2101,2
241,2094,2107,2101,2
241,2094,2104,2099,2
241,2090,2102,2099,2
241,2090,2102,2098,2
241,2090,2102,2099,2
241,2090,2102,2099,2
241,2090,2103,2099,2
241,2091,2103,2099,2
241,2092,2103,2100,2
241,2092,2103,2100,2
241,2091,2102,2099,2
241,2091,2102,2099,2
241,2091,2102,2100,2
241,2093,2104,2100,2
241,2094,2104,2103,2
241,2094,2106,2103,2
241,2094,2106,2103,2
241,2093,2106,2102,2
241,2092,2104,2100,2
241,2091,2102,2099,2
241,2091,2102,2099,2
241,2091,2103,2099,2
241,2091,2103,2100,2
241,2091,2103,2100,2
241,2092,2104,2100,2
241,2093,2105,2101,2
241,2093,2105,2101,2
241,2092,2103,2101,2
241,2092,2103,2101,2
241,2092,2105,2102,2
241,2094,2106,2102,2
241,2094,2107,2104,2
241,2094,2107,2104,2
241,2094,2107,2104,2
241,2092,2107,2103,2
241,2092,2104,2103,2
241,2091,2104,2100,2
241,2091,2103,2100,2
241,2091,2103,2100,2
241,2091,2104,2100,2
241,2091,2104,2101,2
241,2091,2104,2102,2
241,2091,2105,2102,2
241,2091,2104,2102,2
241,2090,2104,2102,2
241,2091,2104,2102,2
241,2091,2105,2103,2
241,2093,2106,2104,2
241,2094,2107,2105,2
241,2094,2107,2105,2
241,2094,2107,2105,2
241,2094,2105,2103,2
241,2090,2103,2103,2
241,2090,2102,2101,2
241,2090,2102,2101,2
241,2091,2103,2102,2
241,2091,2104,2102,2
241,2091,2105,2103,2
241,2092,2105,2103,2
241,2092,2105,2103,2
241,2091,2105,2103,2
241,2091,2104,2102,2
241,2091,2104,2102,2
241,2090,2106,2102,2
241,2091,2106,2105,2
241,2091,2107,2106,2
241,2093,2107,2106,2
241,2093,2107,2106,2
241,2092,2105,2103,2
241,2091,2103,2101,2
241,2091,2103,2101,2
241,2091,2104,2102,2
241,2092,2104,2102,2
241,2092,2105,2102,2
241,2092,2105,2103,2
241,2093,2105,2103,2
241,2093,2105,2103,2
241,2092,2105,2103,2
241,2090,2105,2102,2
241,2090,2105,2103,2
241,2089,2105,2103,2
241,2091,2106,2105,2
241,2091,2107,2106,2
241,2092,2107,2106,2
241,2091,2107,2105,2
241,2091,2104,2103,2
241,2089,2104,2103,2
241,2090,2104,2101,2
241,2090,2105,2101,2
241,2091,2105,2102,2
241,2092,2105,2102,2
241,2092,2106,2102,2
241,2092,2106,2104,2
241,2092,2106,2103,2
241,2091,2105,2103,2
241,2089,2105,2102,2
241,2087,2105,2103,2
241,2087,2105,2104,2
241,2091,2107,2106,2
241,2091,2108,2106,2
241,2093,2107,2106,2
241,2092,2107,2105,2
241,2091,2105,2102,2
241,2090,2104,2101,2
241,2091,2104,2101,2
241,2091,2104,2102,2
241,2091,2104,2102,2
241,2091,2105,2103,2
241,2092,2105,2103,2
241,2092,2106,2103,2
241,2092,2106,2102,2
241,2091,2105,2102,2
241,2087,2105,2102,2
241,2087,2106,2103,2
241,2088,2106,2103,2
241,2090,2106,2106,2
241,2091,2106,2106,2
241,2092,2105,2106,2
241,2091,2105,2104,2
241,2090,2103,2101,2
241,2089,2103,2101,2
241,2089,2103,2102,2
241,2091,2103,2102,2
241,2092,2104,2102,2
241,2092,2104,2103,2
241,2092,2104,2103,2
241,2093,2105,2103,2
241,2092,2104,2102,2
241,2090,2104,2102,2
241,2088,2104,2102,2
241,2086,2105,2103,2
241,2088,2105,2104,2
241,2090,2106,2105,2
241,2091,2106,2105,2
241,2091,2106,2105,2
241,2091,2105,2103,2
241,2089,2104,2103,2
241,2089,2104,2101,2
241,2089,2104,2102,2
241,2090,2104,2103,2
241,2091,2104,2103,2
241,2091,2105,2103,2
241,2092,2105,2103,2
241,2092,2105,2103,2
241,2092,2105,2103,2
241,2090,2104,2102,2
241,2089,2105,2103,2
241,2087,2105,2105,2
241,2089,2105,2106,2
241,2089,2106,2107,2
241,2091,2106,2107,2
241,2091,2106,2107,2
241,2090,2104,2104,2
241,2089,2103,2102,2
241,2090,2103,2102,2
241,2090,2103,2104,2
241,2091,2104,2104,2
241,2091,2104,2104,2
241,2091,2105,2104,2
241,2092,2105,2104,2
241,2092,2105,2103,2
241,2092,2104,2102,2
241,2090,2103,2101,2
241,2090,2103,2103,2
241,2088,2104,2103,2
241,2089,2104,2106,2
241,2089,2105,2106,2
241,2090,2105,2107,2
241,2090,2105,2106,2
241,2090,2103,2102,2
241,2089,2103,2102,2
241,2089,2103,2102,2
241,2089,2104,2103,2
241,2090,2103,2103,2
241,2091,2104,2103,2
241,2091,2104,2104,2
241,2091,2103,2104,2
241,2091,2103,2103,2
241,2090,2103,2103,2
241,2087,2103,2102,2
241,2084,2103,2104,2
241,2085,2103,2105,2
241,2088,2105,2106,2
241,2088,2105,2107,2
241,2091,2105,2107,2
241,2090,2105,2104,2
241,2090,2102,2103,2
241,2090,2102,2102,2
241,2091,2102,2102,2
241,2091,2102,2103,2
241,2091,2103,2103,2
241,2091,2103,2104,2
241,2092,2104,2104,2
241,2092,2104,2104,2
241,2092,2104,2103,2
241,2091,2103,2102,2
241,2089,2103,2102,2
241,2086,2103,2104,2
241,2086,2105,2106,2
241,2088,2105,2108,2
241,2088,2105,2108,2
241,2090,2104,2108,2
241,2090,2104,2105,2
241,2089,2103,2104,2
241,2089,2103,2103,2
241,2089,2103,2103,2
241,2089,2103,2103,2
241,2089,2103,2103,2
241,2089,2103,2103,2
241,2090,2103,2103,2
241,2091,2103,2103,2
241,2091,2103,2102,2
241,2088,2103,2102,2
241,2086,2103,2102,2
241,2086,2103,2104,2
241,2087,2104,2105,2
241,2089,2105,2106,2
241,2090,2105,2106,2
241,2090,2103,2106,2
241,2090,2103,2103,2
241,2089,2102,2103,2
241,2089,2102,2101,2
241,2088,2103,2102,2
241,2089,2103,2103,2
241,2090,2104,2103,2
241,2090,2104,2103,2
241,2091,2104,2103,2
241,2091,2104,2103,2
241,2091,2103,2102,2
241,2088,2103,2101,2
241,2087,2104,2102,2
241,2084,2104,2104,2
241,2086,2105,2105,2
241,2086,2105,2107,2
241,2090,2105,2107,2
241,2090,2105,2106,2
241,2090,2103,2104,2
241,2090,2102,2103,2
241,2089,2102,2102,2
241,2087,2102,2103,2
241,2087,2103,2103,2
241,2087,2103,2103,2
241,2087,2104,2104,2
241,2088,2104,2104,2
241,2089,2104,2104,2
241,2089,2103,2103,2
241,2087,2103,2102,2
241,2087,2103,2104,2
241,2085,2104,2104,2
241,2087,2104,2106,2
241,2087,2104,2107,2
241,2089,2104,2107,2
241,2089,2104,2105,2
241,2088,2103,2103,2
241,2087,2103,2102,2
241,2086,2103,2102,2
241,2086,2103,2102,2
241,2087,2103,2103,2
241,2087,2103,2103,2
241,2086,2103,2103,2
241,2088,2103,2103,2
241,2088,2103,2102,2
241,2088,2103,2102,2
241,2086,2103,2102,2
241,2086,2103,2103,2
241,2086,2103,2104,2
241,2088,2105,2105,2
241,2088,2105,2105,2
241,2089,2104,2105,2
241,2089,2104,2102,2
241,2089,2102,2101,2
241,2088,2101,2100,2
241,2088,2102,2100,2
241,2086,2102,2101,2
241,2087,2102,2101,2
241,2087,2102,2102,2
241,2087,2103,2102,2
241,2088,2103,2103,2
241,2088,2103,2102,2
241,2087,2102,2101,2
241,2087,2103,2102,2
241,2084,2103,2104,2
241,2086,2104,2104,2
241,2087,2104,2106,2
241,2087,2105,2106,2
241,2088,2104,2106,2
241,2088,2103,2103,2
241,2088,2102,2102,2
241,2087,2101,2101,2
241,2087,2101,2102,2
241,2086,2102,2102,2
241,2086,2102,2102,2
241,2086,2103,2102,2
241,2087,2103,2103,2
241,2088,2103,2103,2
241,2088,2103,2101,2
241,2084,2103,2101,2
241,2083,2103,2102,2
241,2083,2104,2104,2
241,2085,2104,2105,2
241,2088,2105,2105,2
241,2089,2105,2105,2
241,2089,2105,2104,2
241,2089,2103,2102,2
241,2087,2103,2102,2
241,2085,2103,2100,2
241,2082,2103,2101,2
241,2083,2102,2101,2
241,2084,2102,2101,2
241,2084,2102,2102,2
241,2086,2102,2102,2
241,2087,2102,2102,2
241,2087,2101,2101,2
241,2086,2101,2100,2
241,2085,2102,2101,2
241,2083,2102,2103,2
241,2085,2102,2104,2
241,2085,2104,2105,2
241,2089,2104,2105,2
241,2089,2104,2103,2
241,2088,2102,2101,2
241,2087,2101,2099,2
241,2086,2101,2099,2
241,2083,2102,2100,2
241,2085,2102,2100,2
241,2084,2102,2100,2
241,2083,2102,2101,2
241,2085,2102,2102,2
241,2086,2102,2102,2
241,2086,2102,2101,2
241,2082,2102,2101,2
241,2082,2104,2102,2
241,2083,2104,2102,2
241,2085,2105,2104,2
241,2085,2105,2104,2
241,2087,2104,2104,2
241,2087,2104,2103,2
241,2087,2102,2101,2
241,2084,2102,2101,2
241,2084,2102,2101,2
241,2083,2102,2101,2
241,2084,2102,2101,2
241,2084,2103,2101,2
241,2083,2102,2102,2
241,2086,2102,2102,2
241,2086,2102,2101,2
241,2085,2102,2101,2
241,2084,2103,2101,2
241,2082,2103,2102,2
241,2083,2103,2103,2
241,2087,2104,2103,2
241,2087,2105,2103,2
241,2089,2104,2103,2
241,2088,2104,2100,2
241,2087,2103,2099,2
241,2085,2101,2098,2
241,2086,2102,2099,2
241,2085,2102,2099,2
241,2085,2102,2099,2
241,2085,2102,2100,2
241,2085,2102,2100,2
241,2087,2102,2100,2
241,2087,2101,2099,2
241,2086,2100,2098,2
241,2084,2102,2100,2
241,2084,2103,2101,2
241,2086,2103,2101,2
241,2088,2104,2102,2
241,2088,2104,2102,2
241,2088,2102,2102,2
241,2086,2101,2100,2
241,2086,2100,2100,2
241,2083,2100,2098,2
241,2083,2100,2099,2
241,2084,2100,2100,2
241,2084,2101,2100,2
241,2082,2101,2100,2
241,2083,2100,2101,2
241,2084,2100,2101,2
241,2084,2100,2100,2
241,2083,2100,2100,2
241,2083,2102,2100,2
241,2081,2102,2101,2
241,2083,2101,2102,2
241,2083,2103,2103,2
241,2088,2103,2103,2
241,2088,2103,2100,2
241,2088,2100,2098,2
241,2086,2099,2096,2
241,2084,2100,2096,2
241,2081,2100,2098,2
241,2082,2100,2099,2
241,2081,2100,2099,2
241,2081,2101,2100,2
241,2084,2101,2100,2
241,2085,2101,2100,2
241,2085,2101,2100,2
241,2083,2101,2099,2
241,2083,2103,2100,2
241,2082,2104,2100,2
241,2084,2104,2103,2
241,2084,2104,2103,2
241,2086,2103,2103,2
241,2086,2102,2101,2
241,2086,2101,2099,2
241,2081,2101,2097,2
241,2080,2101,2097,2
241,2080,2101,2098,2
241,2082,2101,2098,2
241,2082,2102,2098,2
241,2080,2101,2099,2
241,2082,2100,2099,2
241,2082,2100,2098,2
241,2082,2100,2098,2
241,2081,2100,2099,2
241,2080,2101,2101,2
241,2081,2101,2102,2
241,2084,2103,2103,2
241,2085,2103,2103,2
241,2088,2102,2103,2
241,2086,2102,2099,2
241,2086,2100,2098,2
241,2083,2100,2097,2
241,2083,2101,2098,2
241,2082,2101,2098,2
241,2082,2101,2098,2
241,2082,2101,2099,2
241,2081,2101,2099,2
241,2082,2101,2099,2
241,2083,2101,2098,2
241,2082,2101,2097,2
241,2082,2102,2098,2
241,2080,2102,2101,2
241,2082,2103,2101,2
241,2085,2103,2103,2
241,2085,2104,2102,2
241,2086,2103,2101,2
241,2085,2102,2099,2
241,2083,2101,2098,2
241,2079,2101,2097,2
241,2079,2102,2098,2
241,2081,2102,2098,2
241,2080,2102,2098,2
241,2079,2102,2099,2
241,2080,2101,2099,2
241,2082,2101,2099,2
241,2082,2100,2098,2
241,2080,2101,2098,2
241,2080,2101,2099,2
241,2080,2102,2100,2
241,2082,2102,2101,2
241,2085,2104,2101,2
241,2087,2103,2101,2
241,2087,2103,2100,2
241,2087,2100,2097,2
241,2082,2099,2097,2
241,2081,2099,2097,2
241,2078,2099,2098,2
241,2080,2099,2098,2
241,2081,2100,2098,2
241,2079,2100,2099,2
241,2081,2100,2099,2
241,2082,2100,2099,2
241,2082,2100,2099,2
241,2081,2100,2098,2
241,2082,2102,2100,2
241,2080,2102,2101,2
241,2082,2102,2102,2
241,2082,2103,2102,2
241,2086,2103,2102,2
241,2086,2103,2099,2
241,2085,2101,2097,2
241,2082,2099,2095,2
241,2082,2100,2096,2
241,2080,2100,2097,2
241,2081,2101,2097,2
241,2081,2101,2098,2
241,2081,2100,2098,2
241,2081,2099,2098,2
241,2081,2099,2098,2
241,2080,2099,2099,2
241,2079,2099,2099,2
241,2079,2101,2101,2
241,2081,2102,2101,2
241,2083,2102,2103,2
241,2084,2103,2103,2
241,2086,2102,2102,2
241,2086,2101,2100,2
241,2085,2100,2096,2
241,2080,2100,2096,2
241,2080,2100,2097,2
241,2080,2099,2098,2
241,2080,2099,2098,2
241,2080,2101,2099,2
241,2079,2101,2099,2
241,2080,2101,2099,2
241,2080,2099,2098,2
241,2080,2100,2098,2
241,2080,2100,2099,2
241,2079,2101,2101,2
241,2081,2101,2101,2
241,2084,2103,2102,2
241,2085,2103,2102,2
241,2087,2102,2102,2
241,2085,2102,2097,2
241,2083,2100,2096,2
241,2081,2099,2096,2
241,2082,2100,2097,2
241,2082,2100,2098,2
241,2080,2100,2098,2
241,2080,2101,2099,2
241,2080,2101,2099,2
241,2081,2101,2098,2
241,2081,2100,2098,2
241,2081,2099,2098,2
241,2082,2100,2099,2
241,2080,2101,2100,2
241,2082,2102,2100,2
241,2085,2102,2101,2
241,2086,2102,2100,2
241,2086,2101,2099,2
241,2084,2100,2097,2
241,2081,2099,2097,2
241,2078,2099,2097,2
241,2078,2099,2098,2
241,2080,2099,2098,2
241,2080,2100,2098,2
241,2079,2100,2098,2
241,2080,2099,2098,2
241,2082,2100,2098,2
241,2082,2100,2098,2
241,2080,2100,2098,2
241,2080,2100,2099,2
241,2079,2100,2100,2
241,2081,2101,2101,2
241,2084,2102,2101,2
241,2086,2101,2101,2
241,2086,2101,2098,2
241,2086,2099,2097,2
241,2081,2099,2097,2
241,2080,2100,2097,2
241,2079,2099,2097,2
241,2081,2099,2097,2
241,2080,2100,2097,2
241,2080,2099,2097,2
241,2081,2099,2097,2
241,2081,2099,2097,2
241,2081,2099,2097,2
241,2081,2099,2097,2
241,2082,2101,2098,2
241,2081,2101,2100,2
241,2084,2101,2100,2
241,2084,2102,2100,2
241,2087,2101,2100,2
241,2086,2100,2098,2
241,2085,2099,2096,2
241,2082,2098,2095,2
241,2082,2099,2096,2
241,2082,2099,2096,2
241,2081,2099,2096,2
241,2081,2099,2097,2
241,2080,2099,2098,2
241,2081,2098,2098,2
241,2081,2099,2098,2
241,2080,2099,2098,2
241,2079,2099,2098,2
241,2079,2101,2100,2
241,2081,2101,2100,2
241,2084,2102,2101,2
241,2085,2102,2100,2
241,2086,2101,2099,2
241,2085,2100,2097,2
241,2083,2098,2096,2
241,2078,2099,2096,2
241,2079,2099,2097,2
241,2079,2099,2097,2
241,2079,2099,2097,2
241,2080,2101,2098,2
241,2079,2100,2098,2
241,2081,2100,2098,2
241,2081,2099,2098,2
241,2080,2099,2098,2
241,2080,2101,2099,2
241,2079,2101,2100,2
241,2081,2101,2101,2
241,2084,2102,2101,2
241,2086,2102,2099,2
241,2087,2101,2099,2
241,2084,2101,2095,2
241,2082,2100,2095,2
241,2080,2098,2095,2
241,2081,2099,2097,2
241,2081,2099,2098,2
241,2080,2099,2098,2
241,2080,2099,2098,2
241,2081,2100,2098,2
241,2081,2100,2098,2
241,2081,2100,2098,2
241,2081,2099,2097,2
241,2081,2101,2098,2
241,2081,2103,2100,2
241,2083,2103,2100,2
241,2085,2103,2101,2
241,2086,2102,2099,2
241,2086,2101,2098,2
241,2084,2101,2096,2
241,2081,2100,2096,2
241,2080,2100,2096,2
241,2080,2099,2097,2
241,2082,2099,2097,2
241,2081,2101,2097,2
241,2080,2101,2097,2
241,2081,2100,2097,2
241,2081,2100,2097,2
241,2081,2101,2097,2
241,2079,2101,2097,2
241,2079,2101,2100,2
241,2079,2101,2100,2
241,2082,2101,2101,2
241,2085,2103,2101,2
241,2086,2102,2098,2
241,2086,2102,2098,2
241,2086,2100,2096,2
241,2081,2100,2096,2
241,2081,2101,2097,2
241,2081,2100,2097,2
241,2081,2099,2097,2
241,2081,2101,2097,2
241,2081,2101,2097,2
241,2082,2100,2097,2
241,2082,2100,2097,2
241,2081,2100,2097,2
241,2081,2100,2097,2
241,2083,2102,2099,2
241,2083,2102,2102,2
241,2086,2102,2102,2
241,2086,2102,2101,2
241,2088,2101,2101,2
241,2085,2100,2098,2
241,2083,2100,2097,2
241,2081,2099,2096,2
241,2081,2100,2097,2
241,2081,2099,2097,2
241,2081,2099,2097,2
241,2081,2099,2098,2
241,2081,2099,2098,2
241,2082,2099,2098,2
241,2082,2099,2097,2
241,2080,2099,2098,2
241,2080,2099,2098,2
241,2080,2101,2100,2
241,2083,2102,2100,2
241,2085,2103,2101,2
241,2087,2102,2101,2
241,2087,2100,2100,2
241,2083,2099,2098,2
241,2083,2099,2098,2
241,2079,2099,2098,2
241,2080,2099,2099,2
241,2080,2099,2099,2
241,2080,2099,2099,2
241,2081,2100,2099,2
241,2081,2099,2099,2
241,2082,2099,2099,2
241,2082,2098,2098,2
241,2081,2098,2098,2
241,2081,2100,2099,2
241,2080,2100,2100,2
241,2082,2100,2101,2
241,2085,2101,2101,2
241,2085,2101,2100,2
241,2086,2100,2100,2
241,2084,2100,2096,2
241,2081,2099,2096,2
241,2081,2098,2096,2
241,2083,2099,2097,2
241,2083,2100,2097,2
241,2082,2100,2098,2
241,2082,2100,2098,2
241,2083,2100,2098,2
241,2082,2100,2098,2
241,2081,2100,2098,2
241,2081,2099,2098,2
241,2081,2101,2100,2
241,2081,2103,2101,2
241,2085,2103,2101,2
241,2087,2103,2102,2
241,2088,2102,2100,2
241,2087,2100,2098,2
241,2082,2100,2097,2
241,2082,2100,2097,2
241,2082,2100,2097,2
241,2082,2100,2098,2
241,2082,2100,2098,2
241,2082,2101,2098,2
241,2080,2100,2098,2
241,2081,2100,2098,2
241,2080,2100,2097,2
241,2080,2101,2098,2
241,2080,2101,2098,2
241,2081,2103,2099,2
241,2081,2103,2100,2
241,2084,2103,2101,2
241,2087,2103,2101,2
241,2087,2101,2101,2
241,2084,2101,2097,2
241,2084,2099,2096,2
241,2082,2099,2096,2
241,2082,2101,2097,2
241,2081,2101,2098,2
241,2081,2101,2098,2
241,2081,2101,2099,2
241,2081,2100,2099,2
241,2082,2099,2099,2
241,2082,2099,2098,2
241,2080,2099,2099,2
241,2080,2099,2099,2
241,2083,2102,2100,2
241,2083,2103,2100,2
241,2085,2103,2102,2
241,2085,2103,2100,2
241,2086,2101,2099,2
241,2084,2100,2097,2
241,2081,2099,2097,2
241,2080,2099,2097,2
241,2081,2099,2098,2
241,2081,2100,2098,2
241,2080,2100,2098,2
241,2080,2102,2098,2
241,2079,2101,2098,2
241,2080,2099,2098,2
241,2080,2100,2098,2
241,2079,2101,2098,2
241,2079,2101,2100,2
241,2079,2102,2101,2
241,2081,2102,2101,2
241,2084,2103,2102,2
241,2086,2103,2100,2
241,2086,2102,2099,2
241,2083,2102,2095,2
241,2083,2101,2096,2
241,2081,2101,2096,2
241,2082,2101,2097,2
241,2081,2101,2098,2
241,2080,2099,2098,2
241,2080,2101,2099,2
241,2080,2101,2099,2
241,2080,2101,2098,2
241,2079,2101,2099,2
241,2079,2101,2098,2
241,2080,2103,2100,2
241,2079,2103,2101,2
241,2083,2103,2102,2
241,2085,2103,2101,2
241,2085,2102,2099,2
241,2084,2101,2098,2
241,2082,2101,2096,2
241,2079,2101,2097,2
241,2080,2100,2097,2
241,2080,2100,2098,2
241,2080,2100,2098,2
241,2080,2100,2099,2
241,2078,2100,2099,2
241,2079,2099,2099,2
241,2080,2100,2098,2
241,2079,2100,2099,2
241,2079,2101,2099,2
241,2080,2101,2102,2
241,2080,2102,2102,2
241,2083,2102,2102,2
241,2085,2103,2102,2
241,2086,2102,2097,2
241,2082,2102,2097,2
241,2082,2100,2096,2
241,2079,2100,2096,2
241,2080,2102,2097,2
241,2080,2101,2098,2
241,2080,2100,2098,2
241,2081,2102,2099,2
241,2080,2101,2099,2
241,2081,2100,2099,2
241,2081,2100,2098,2
241,2079,2101,2099,2
241,2080,2101,2099,2
241,2082,2103,2100,2
241,2082,2103,2102,2
241,2085,2103,2102,2
241,2085,2103,2101,2
241,2085,2102,2101,2
241,2083,2101,2098,2
241,2080,2100,2098,2
241,2080,2099,2097,2
241,2082,2101,2098,2
241,2082,2101,2098,2
241,2080,2101,2098,2
241,2080,2101,2099,2
241,2080,2100,2099,2
241,2081,2099,2098,2
241,2081,2100,2098,2
241,2079,2100,2099,2
241,2079,2100,2099,2
241,2079,2102,2101,2
241,2082,2102,2101,2
241,2085,2103,2101,2
241,2086,2103,2099,2
241,2086,2101,2098,2
241,2081,2101,2096,2
241,2081,2101,2096,2
241,2079,2101,2096,2
241,2080,2101,2097,2
241,2080,2101,2097,2
241,2080,2100,2097,2
241,2081,2101,2097,2
241,2081,2100,2097,2
241,2080,2100,2097,2
241,2080,2101,2098,2
241,2080,2102,2098,2
241,2081,2104,2099,2
241,2081,2103,2100,2
241,2083,2103,2101,2
241,2086,2104,2101,2
241,2086,2102,2099,2
241,2085,2101,2099,2
241,2082,2101,2096,2
241,2079,2100,2096,2
241,2080,2099,2096,2
241,2082,2100,2097,2
241,2081,2101,2097,2
241,2080,2101,2098,2
241,2080,2101,2098,2
241,2081,2100,2098,2
241,2081,2100,2098,2
241,2079,2100,2098,2
241,2079,2099,2098,2
241,2080,2101,2100,2
241,2080,2103,2101,2
241,2084,2103,2101,2
241,2086,2103,2101,2
241,2086,2102,2099,2
241,2084,2100,2097,2
241,2083,2100,2097,2
241,2080,2100,2097,2
241,2080,2100,2098,2
241,2080,2100,2098,2
241,2080,2100,2098,2
241,2080,2101,2098,2
241,2079,2100,2098,2
241,2079,2099,2097,2
241,2079,2099,2097,2
241,2079,2101,2098,2
241,2079,2101,2098,2
241,2081,2103,2100,2
241,2081,2102,2101,2
241,2083,2102,2101,2
241,2086,2102,2100,2
241,2086,2100,2100,2
241,2083,2100,2095,2
241,2083,2098,2095,2
241,2081,2098,2095,2
241,2081,2100,2097,2
241,2081,2100,2097,2
241,2081,2099,2097,2
241,2081,2101,2097,2
241,2081,2099,2097,2
241,2080,2099,2097,2
241,2080,2101,2097,2
241,2079,2101,2098,2
241,2079,2101,2099,2
241,2083,2102,2100,2
241,2083,2103,2100,2
241,2085,2103,2101,2
241,2085,2102,2099,2
241,2085,2101,2097,2
241,2083,2100,2095,2
241,2080,2099,2096,2
241,2079,2098,2096,2
241,2080,2099,2097,2
241,2080,2100,2097,2
241,2079,2100,2097,2
241,2080,2101,2098,2
241,2080,2100,2098,2
241,2080,2099,2097,2
241,2079,2100,2097,2
241,2079,2102,2097,2
241,2080,2102,2099,2
241,2080,2102,2100,2
241,2082,2102,2100,2
241,2084,2103,2100,2
241,2086,2102,2098,2
241,2085,2100,2096,2
241,2082,2100,2094,2
241,2082,2099,2095,2
241,2081,2099,2095,2
241,2081,2100,2096,2
241,2080,2100,2097,2
241,2079,2098,2097,2
241,2081,2099,2097,2
241,2081,2099,2097,2
241,2080,2099,2096,2
241,2080,2100,2097,2
241,2079,2100,2097,2
241,2081,2102,2099,2
241,2081,2102,2100,2
241,2083,2102,2100,2
241,2085,2102,2099,2
241,2085,2100,2097,2
241,2083,2099,2097,2
241,2081,2099,2096,2
241,2079,2098,2097,2
241,2080,2098,2097,2
241,2080,2100,2097,2
241,2080,2100,2097,2
241,2079,2100,2097,2
241,2079,2099,2097,2
241,2080,2098,2097,2
241,2080,2098,2097,2
241,2079,2099,2098,2
241,2079,2099,2098,2
241,2081,2101,2101,2
241,2081,2103,2101,2
241,2086,2103,2101,2
241,2086,2103,2100,2
241,2086,2101,2097,2
241,2083,2099,2095,2
241,2079,2099,2095,2
241,2079,2099,2095,2
241,2080,2099,2097,2
241,2080,2099,2097,2
241,2079,2099,2097,2
241,2080,2100,2098,2
241,2080,2099,2098,2
241,2081,2098,2097,2
241,2080,2099,2097,2
241,2080,2100,2098,2
241,2080,2100,2098,2
241,2082,2102,2099,2
241,2083,2102,2099,2
241,2085,2102,2100,2
241,2085,2102,2099,2
241,2086,2100,2099,2
241,2083,2100,2094,2
241,2083,2099,2094,2
241,2080,2099,2094,2
241,2081,2099,2095,2
241,2081,2099,2096,2
241,2080,2098,2096,2
241,2080,2099,2097,2
241,2080,2098,2097,2
241,2079,2098,2097,2
241,2079,2099,2097,2
241,2078,2099,2098,2
241,2079,2099,2099,2
241,2083,2101,2100,2
241,2083,2102,2100,2
241,2085,2102,2100,2
241,2085,2100,2098,2
241,2084,2100,2096,2
241,2082,2100,2094,2
241,2079,2099,2095,2
241,2079,2098,2095,2
241,2080,2098,2096,2
241,2080,2099,2096,2
241,2079,2098,2096,2
241,2080,2099,2096,2
241,2080,2098,2096,2
241,2080,2097,2095,2
241,2080,2099,2096,2
241,2080,2101,2096,2
241,2081,2101,2099,2
241,2081,2102,2100,2
241,2083,2102,2100,2
241,2085,2102,2100,2
241,2086,2101,2098,2
241,2084,2098,2096,2
241,2081,2098,2094,2
241,2081,2098,2095,2
241,2081,2098,2095,2
241,2081,2098,2096,2
241,2080,2098,2097,2
241,2080,2097,2097,2
241,2081,2098,2097,2
241,2081,2097,2097,2
241,2080,2097,2096,2
241,2080,2098,2097,2
241,2080,2099,2097,2
241,2082,2100,2098,2
241,2082,2100,2099,2
241,2084,2100,2099,2
241,2085,2101,2098,2
241,2085,2099,2096,2
241,2081,2098,2096,2
241,2080,2098,2096,2
241,2078,2098,2097,2
241,2079,2098,2097,2
241,2079,2099,2097,2
241,2079,2099,2097,2
241,2080,2099,2097,2
241,2080,2098,2097,2
241,2081,2097,2097,2
241,2081,2097,2096,2
241,2080,2097,2096,2
241,2080,2097,2097,2
241,2082,2099,2099,2
241,2082,2100,2099,2
241,2086,2100,2099,2
241,2086,2100,2098,2
241,2086,2099,2095,2
241,2083,2097,2093,2
241,2080,2098,2093,2
241,2080,2098,2093,2
241,2081,2098,2096,2
241,2081,2098,2096,2
241,2080,2098,2096,2
241,2081,2099,2096,2
241,2081,2099,2096,2
241,2081,2098,2095,2
241,2080,2099,2095,2
241,2080,2101,2097,2
241,2082,2101,2097,2
241,2084,2102,2098,2
241,2085,2102,2098,2
241,2086,2101,2098,2
241,2086,2100,2096,2
241,2086,2098,2096,2
241,2083,2098,2093,2
241,2083,2098,2093,2
241,2083,2098,2093,2
241,2083,2099,2094,2
241,2082,2099,2095,2
241,2081,2098,2095,2
241,2081,2099,2095,2
241,2081,2098,2094,2
241,2080,2099,2094,2
241,2080,2100,2094,2
241,2079,2100,2096,2
241,2081,2100,2097,2
241,2085,2101,2098,2
241,2085,2102,2098,2
241,2086,2102,2098,2
241,2086,2100,2095,2
241,2084,2099,2093,2
241,2082,2099,2092,2
241,2079,2098,2094,2
241,2080,2099,2094,2
241,2080,2099,2095,2
241,2080,2099,2095,2
241,2081,2098,2095,2
241,2082,2098,2095,2
241,2082,2098,2094,2
241,2082,2098,2094,2
241,2081,2099,2095,2
241,2081,2100,2095,2
241,2082,2100,2097,2
241,2082,2101,2098,2
241,2084,2101,2098,2
241,2085,2101,2097,2
241,2086,2100,2095,2
241,2084,2097,2093,2
241,2081,2097,2092,2
241,2081,2098,2093,2
241,2082,2098,2093,2
241,2082,2099,2093,2
241,2080,2099,2094,2
241,2081,2098,2094,2
241,2081,2098,2094,2
241,2082,2098,2094,2
241,2081,2098,2094,2
241,2081,2099,2095,2
241,2081,2099,2095,2
241,2083,2101,2096,2
241,2084,2101,2097,2
241,2088,2100,2097,2
241,2088,2100,2094,2
241,2088,2098,2092,2
241,2085,2097,2090,2
241,2083,2098,2090,2
241,2081,2098,2092,2
241,2082,2097,2093,2
241,2082,2097,2092,2
241,2080,2098,2092,2
241,2081,2098,2094,2
241,2081,2098,2094,2
241,2081,2097,2093,2
241,2081,2098,2093,2
241,2080,2098,2095,2
241,2081,2099,2095,2
241,2083,2099,2097,2
241,2083,2100,2097,2
241,2085,2099,2096,2
241,2085,2098,2094,2
241,2085,2097,2092,2
241,2080,2097,2090,2
241,2080,2098,2090,2
241,2080,2098,2090,2
241,2080,2098,2092,2
241,2081,2098,2092,2
241,2081,2098,2092,2
241,2081,2099,2093,2
241,2082,2098,2092,2
241,2081,2099,2092,2
241,2080,2099,2093,2
241,2080,2100,2094,2
241,2082,2100,2095,2
241,2084,2101,2096,2
241,2086,2101,2096,2
241,2088,2101,2095,2
241,2088,2098,2093,2
241,2085,2097,2093,2
241,2082,2097,2091,2
241,2079,2097,2092,2
241,2080,2097,2092,2
241,2081,2097,2092,2
241,2080,2097,2093,2
241,2080,2097,2093,2
241,2082,2097,2093,2
241,2082,2097,2092,2
241,2081,2097,2091,2
241,2081,2099,2092,2
241,2080,2099,2094,2
241,2083,2099,2095,2
241,2083,2100,2096,2
241,2087,2100,2096,2
241,2087,2100,2094,2
241,2088,2098,2092,2
241,2085,2097,2090,2
241,2083,2097,2090,2
241,2080,2096,2091,2
241,2081,2097,2091,2
241,2081,2097,2092,2
241,2081,2097,2093,2
241,2081,2097,2093,2
241,2082,2097,2093,2
241,2083,2097,2093,2
241,2081,2097,2092,2
241,2081,2098,2093,2
241,2082,2099,2093,2
241,2083,2099,2095,2
241,2084,2099,2096,2
241,2086,2099,2096,2
241,2086,2099,2094,2
241,2087,2098,2090,2
241,2081,2098,2090,2
241,2080,2098,2090,2
241,2080,2098,2091,2
241,2081,2098,2092,2
241,2081,2098,2092,2
241,2080,2098,2093,2
241,2081,2097,2093,2
241,2081,2097,2092,2
241,2081,2097,2092,2
241,2080,2097,2093,2
241,2079,2097,2094,2
241,2080,2097,2095,2
241,2082,2099,2095,2
241,2084,2099,2096,2
241,2088,2098,2096,2
241,2087,2098,2092,2
241,2087,2096,2090,2
241,2083,2095,2089,2
241,2082,2096,2090,2
241,2081,2096,2092,2
241,2082,2096,2092,2
241,2082,2097,2093,2
241,2081,2097,2093,2
241,2082,2097,2093,2
241,2083,2097,2092,2
241,2082,2097,2091,2
241,2081,2098,2092,2
241,2080,2098,2095,2
241,2082,2098,2095,2
241,2084,2098,2097,2
241,2084,2100,2096,2
241,2086,2099,2096,2
241,2085,2098,2094,2
241,2083,2097,2093,2
241,2080,2096,2091,2
241,2080,2096,2093,2
241,2081,2096,2093,2
241,2081,2096,2093,2
241,2080,2096,2093,2
241,2080,2096,2093,2
241,2081,2097,2093,2
241,2082,2096,2092,2
241,2081,2097,2092,2
241,2080,2097,2093,2
241,2080,2099,2095,2
241,2081,2099,2096,2
241,2084,2100,2097,2
241,2086,2100,2096,2
241,2087,2100,2095,2
241,2087,2097,2093,2
241,2083,2096,2093,2
241,2081,2096,2092,2
241,2078,2096,2093,2
241,2079,2096,2094,2
241,2080,2096,2094,2
241,2079,2096,2095,2
241,2080,2096,2095,2
241,2081,2096,2095,2
241,2081,2096,2094,2
241,2080,2096,2094,2
241,2081,2097,2095,2
241,2080,2098,2096,2
241,2082,2098,2097,2
241,2082,2099,2097,2
241,2086,2099,2097,2
241,2086,2099,2093,2
241,2086,2098,2091,2
241,2083,2097,2089,2
241,2081,2097,2090,2
241,2079,2097,2091,2
241,2081,2097,2091,2
241,2080,2097,2093,2
241,2079,2097,2094,2
241,2080,2096,2094,2
241,2081,2097,2094,2
241,2081,2097,2094,2
241,2080,2097,2094,2
241,2080,2099,2095,2
241,2082,2099,2095,2
241,2083,2100,2096,2
241,2084,2100,2097,2
241,2085,2099,2097,2
241,2085,2098,2095,2
241,2085,2097,2093,2
241,2079,2097,2093,2
241,2079,2097,2094,2
241,2079,2097,2094,2
241,2080,2097,2094,2
241,2080,2098,2094,2
241,2079,2098,2095,2
241,2080,2098,2095,2
241,2080,2097,2094,2
241,2079,2097,2094,2
241,2079,2098,2094,2
241,2078,2098,2095,2
241,2080,2098,2096,2
241,2083,2099,2097,2
241,2084,2099,2097,2
241,2086,2098,2097,2
241,2084,2098,2093,2
241,2083,2097,2092,2
241,2080,2096,2091,2
241,2080,2097,2092,2
241,2080,2097,2093,2
241,2079,2097,2093,2
241,2079,2098,2094,2
241,2079,2097,2094,2
241,2080,2097,2094,2
241,2080,2096,2093,2
241,2079,2096,2093,2
241,2079,2098,2094,2
241,2079,2099,2095,2
241,2081,2099,2095,2
241,2083,2099,2097,2
241,2085,2099,2096,2
241,2085,2098,2096,2
241,2083,2097,2094,2
241,2081,2096,2094,2
241,2079,2096,2093,2
241,2079,2096,2094,2
241,2080,2096,2094,2
241,2079,2097,2094,2
241,2078,2097,2095,2
241,2078,2096,2095,2
241,2079,2097,2094,2
241,2079,2097,2094,2
241,2078,2097,2094,2
241,2078,2097,2095,2
241,2078,2098,2097,2
241,2080,2098,2098,2
241,2083,2099,2098,2
241,2084,2099,2096,2
241,2085,2099,2096,2
241,2085,2097,2093,2
241,2080,2096,2093,2
241,2079,2097,2093,2
241,2077,2096,2094,2
241,2078,2095,2094,2
241,2078,2096,2094,2
241,2078,2097,2094,2
241,2078,2096,2094,2
241,2078,2096,2094,2
241,2077,2096,2094,2
241,2077,2096,2094,2
241,2079,2098,2096,2
241,2079,2099,2096,2
241,2081,2099,2098,2
241,2081,2100,2098,2
241,2083,2099,2098,2
241,2083,2099,2096,2
241,2083,2098,2094,2
241,2080,2096,2092,2
241,2079,2097,2093,2
241,2079,2097,2094,2
241,2079,2097,2094,2
241,2078,2098,2094,2
241,2077,2097,2094,2
241,2078,2095,2094,2
241,2077,2095,2094,2
241,2077,2097,2094,2
241,2077,2097,2095,2
241,2077,2098,2096,2
241,2078,2099,2097,2
241,2080,2100,2098,2
241,2081,2100,2098,2
241,2083,2099,2097,2
241,2081,2098,2093,2
241,2081,2096,2092,2
241,2078,2096,2092,2
241,2078,2097,2093,2
241,2077,2097,2094,2
241,2078,2096,2094,2
241,2078,2097,2095,2
241,2078,2096,2095,2
241,2077,2096,2095,2
241,2077,2094,2095,2
241,2077,2095,2094,2
241,2078,2097,2095,2
241,2077,2097,2096,2
241,2079,2097,2097,2
241,2081,2099,2098,2
241,2081,2099,2097,2
241,2084,2098,2097,2
241,2082,2097,2094,2
241,2079,2096,2093,2
241,2078,2096,2092,2
241,2079,2097,2093,2
241,2078,2097,2093,2
241,2077,2097,2093,2
241,2077,2097,2093,2
241,2077,2096,2093,2
241,2077,2097,2093,2
241,2076,2096,2094,2
241,2076,2096,2094,2
241,2077,2097,2097,2
241,2077,2098,2097,2
241,2080,2099,2097,2
241,2082,2100,2098,2
241,2084,2099,2097,2
241,2084,2098,2096,2
241,2080,2097,2094,2
241,2080,2096,2094,2
241,2079,2096,2094,2
241,2079,2096,2094,2
241,2078,2096,2094,2
241,2078,2097,2094,2
241,2077,2097,2095,2
241,2077,2095,2095,2
241,2077,2096,2094,2
241,2077,2096,2094,2
241,2077,2097,2094,2
241,2078,2099,2095,2
241,2078,2099,2097,2
241,2079,2099,2097,2
241,2082,2100,2097,2
241,2082,2099,2097,2
241,2082,2099,2095,2
241,2082,2097,2094,2
241,2079,2096,2092,2
241,2079,2097,2093,2
241,2078,2097,2094,2
241,2078,2097,2094,2
241,2077,2097,2095,2
241,2077,2097,2095,2
241,2077,2096,2095,2
241,2077,2097,2094,2
241,2076,2097,2095,2
241,2076,2096,2095,2
241,2079,2099,2096,2
241,2079,2100,2096,2
241,2080,2100,2099,2
241,2080,2100,2099,2
241,2082,2099,2098,2
241,2081,2098,2096,2
241,2080,2096,2094,2
241,2079,2096,2093,2
241,2079,2096,2094,2
241,2079,2097,2095,2
241,2078,2097,2095,2
241,2078,2098,2096,2
241,2076,2097,2096,2
241,2076,2095,2096,2
241,2077,2096,2095,2
241,2077,2098,2095,2
241,2077,2098,2096,2
241,2077,2099,2097,2
241,2079,2099,2098,2
241,2081,2100,2098,2
241,2082,2100,2098,2
241,2084,2098,2097,2
241,2081,2098,2092,2
241,2081,2096,2092,2
241,2078,2096,2092,2
241,2078,2097,2093,2
241,2078,2097,2094,2
241,2078,2096,2094,2
241,2078,2097,2095,2
241,2078,2096,2095,2
241,2078,2096,2095,2
241,2078,2095,2095,2
241,2078,2096,2095,2
241,2078,2098,2096,2
241,2077,2098,2098,2
241,2079,2100,2099,2
241,2081,2100,2099,2
241,2081,2099,2098,2
241,2084,2098,2098,2
241,2082,2098,2095,2
241,2079,2097,2095,2
241,2077,2096,2095,2
241,2079,2097,2096,2
241,2079,2098,2096,2
241,2079,2098,2096,2
241,2079,2098,2096,2
241,2079,2097,2096,2
241,2079,2097,2096,2
241,2078,2097,2096,2
241,2078,2096,2096,2
241,2078,2098,2097,2
241,2078,2100,2098,2
241,2081,2100,2098,2
241,2083,2101,2098,2
241,2084,2100,2096,2
241,2084,2098,2095,2
241,2079,2098,2093,2
241,2079,2097,2093,2
241,2078,2097,2093,2
241,2078,2097,2094,2
241,2079,2097,2094,2
241,2079,2098,2095,2
241,2077,2098,2096,2
241,2078,2096,2096,2
241,2077,2097,2095,2
241,2077,2097,2096,2
241,2077,2098,2096,2
241,2078,2100,2098,2
241,2078,2100,2099,2
241,2081,2100,2100,2
241,2083,2101,2099,2
241,2085,2099,2099,2
241,2084,2099,2094,2
241,2084,2097,2093,2
241,2079,2097,2093,2
241,2079,2098,2094,2
241,2078,2098,2095,2
241,2078,2097,2095,2
241,2077,2099,2096,2
241,2077,2098,2096,2
241,2078,2097,2096,2
241,2078,2097,2096,2
241,2077,2097,2097,2
241,2077,2097,2097,2
241,2080,2099,2098,2
241,2080,2101,2098,2
241,2082,2101,2099,2
241,2082,2101,2098,2
241,2084,2100,2098,2
241,2082,2099,2096,2
241,2080,2097,2095,2
241,2078,2095,2094,2
241,2078,2097,2096,2
241,2078,2098,2096,2
241,2077,2098,2096,2
241,2077,2098,2096,2
241,2076,2097,2096,2
241,2077,2096,2096,2
241,2078,2097,2095,2
241,2077,2099,2095,2
241,2077,2099,2097,2
241,2077,2100,2098,2
241,2081,2100,2098,2
241,2083,2101,2098,2
241,2084,2101,2097,2
241,2084,2100,2097,2
241,2081,2099,2093,2
241,2081,2097,2093,2
241,2078,2097,2093,2
241,2079,2098,2094,2
241,2079,2098,2095,2
241,2079,2097,2095,2
241,2080,2099,2095,2
241,2079,2099,2095,2
241,2079,2099,2094,2
241,2079,2098,2094,2
241,2078,2098,2094,2
241,2078,2100,2096,2
241,2078,2100,2098,2
241,2080,2100,2099,2
241,2085,2100,2100,2
241,2085,2099,2098,2
241,2085,2098,2098,2
241,2082,2098,2094,2
241,2079,2097,2095,2
241,2079,2096,2095,2
241,2080,2097,2095,2
241,2080,2098,2095,2
241,2079,2098,2096,2
241,2079,2098,2096,2
241,2079,2097,2096,2
241,2079,2097,2096,2
241,2078,2097,2096,2
241,2078,2097,2096,2
241,2080,2099,2097,2
241,2080,2101,2098,2
241,2082,2101,2098,2
241,2083,2101,2099,2
241,2085,2099,2097,2
241,2084,2098,2095,2
241,2082,2098,2093,2
241,2079,2098,2093,2
241,2079,2098,2094,2
241,2079,2098,2095,2
241,2079,2098,2095,2
241,2078,2100,2095,2
241,2077,2099,2095,2
241,2078,2098,2095,2
241,2078,2098,2094,2
241,2078,2099,2095,2
241,2077,2099,2095,2
241,2079,2099,2098,2
241,2079,2100,2098,2
241,2082,2100,2099,2
241,2084,2100,2099,2
241,2085,2099,2095,2
241,2080,2099,2095,2
241,2080,2097,2094,2
241,2077,2097,2094,2
241,2078,2099,2096,2
241,2078,2098,2096,2
241,2078,2097,2096,2
241,2078,2098,2096,2
241,2078,2098,2096,2
241,2079,2098,2096,2
241,2079,2098,2096,2
241,2078,2098,2097,2
241,2078,2098,2097,2
241,2081,2100,2098,2
241,2082,2100,2099,2
241,2085,2100,2099,2
241,2085,2100,2098,2
241,2086,2099,2098,2
241,2083,2098,2095,2
241,2080,2098,2095,2
241,2078,2097,2094,2
241,2080,2098,2095,2
241,2080,2099,2095,2
241,2079,2099,2095,2
241,2079,2099,2096,2
241,2079,2099,2096,2
241,2080,2098,2096,2
241,2080,2099,2096,2
241,2078,2099,2098,2
241,2078,2099,2098,2
241,2078,2101,2099,2
241,2082,2101,2099,2
241,2084,2102,2099,2
241,2085,2101,2098,2
241,2085,2099,2096,2
241,2080,2098,2094,2
241,2080,2098,2094,2
241,2078,2098,2094,2
241,2079,2098,2095,2
241,2079,2098,2096,2
241,2079,2098,2096,2
241,2079,2099,2096,2
241,2079,2098,2095,2
241,2078,2098,2095,2
241,2078,2099,2095,2
241,2076,2099,2095,2
241,2078,2101,2097,2
241,2078,2101,2098,2
241,2080,2101,2099,2
241,2083,2102,2099,2
241,2084,2100,2097,2
241,2083,2099,2097,2
241,2080,2099,2093,2
241,2077,2099,2094,2
241,2077,2098,2094,2
241,2078,2099,2095,2
241,2078,2099,2096,2
241,2077,2099,2096,2
241,2077,2099,2096,2
241,2079,2099,2096,2
241,2079,2099,2095,2
241,2078,2099,2096,2
241,2078,2098,2096,2
241,2080,2100,2098,2
241,2080,2101,2099,2
241,2084,2101,2099,2
241,2085,2101,2098,2
241,2085,2100,2096,2
241,2083,2098,2094,2
241,2081,2098,2094,2
241,2078,2098,2096,2
241,2079,2098,2096,2
241,2079,2099,2096,2
241,2078,2099,2096,2
241,2078,2100,2096,2
241,2077,2099,2096,2
241,2078,2098,2096,2
241,2079,2098,2096,2
241,2078,2100,2096,2
241,2078,2100,2096,2
241,2080,2100,2099,2
241,2080,2100,2099,2
241,2083,2100,2099,2
241,2084,2100,2098,2
241,2084,2099,2094,2
241,2079,2099,2094,2
241,2079,2098,2094,2
241,2076,2098,2094,2
241,2078,2099,2095,2
241,2078,2098,2095,2
241,2078,2097,2095,2
241,2079,2099,2095,2
241,2079,2099,2095,2
241,2080,2099,2095,2
241,2079,2099,2094,2
241,2078,2099,2095,2
241,2079,2099,2096,2
241,2081,2101,2098,2
241,2081,2101,2099,2
241,2085,2101,2099,2
241,2085,2101,2097,2
241,2085,2100,2097,2
241,2082,2100,2093,2
241,2079,2099,2094,2
241,2078,2098,2094,2
241,2080,2099,2095,2
241,2080,2099,2095,2
241,2077,2099,2095,2
241,2078,2099,2096,2
241,2078,2099,2096,2
241,2079,2098,2096,2
241,2079,2099,2096,2
241,2078,2099,2097,2
241,2079,2099,2097,2
241,2079,2101,2097,2
241,2083,2101,2097,2
241,2085,2101,2097,2
241,2085,2100,2096,2
241,2084,2098,2094,2
241,2082,2098,2094,2
241,2079,2098,2094,2
241,2078,2098,2094,2
241,2079,2098,2095,2
241,2079,2099,2095,2
241,2079,2098,2095,2
241,2080,2099,2096,2
241,2080,2098,2095,2
241,2078,2098,2095,2
241,2078,2099,2096,2
241,2077,2099,2096,2
241,2079,2101,2098,2
241,2079,2101,2099,2
241,2082,2100,2099,2
241,2084,2100,2098,2
241,2085,2098,2096,2
241,2081,2098,2096,2
241,2079,2098,2094,2
241,2076,2098,2095,2
241,2077,2098,2095,2
241,2078,2099,2096,2
241,2077,2099,2096,2
241,2078,2099,2096,2
241,2078,2099,2096,2
241,2080,2098,2096,2
241,2080,2098,2096,2
241,2079,2098,2097,2
241,2079,2098,2097,2
241,2081,2100,2098,2
241,2081,2101,2099,2
241,2085,2101,2099,2
241,2085,2101,2097,2
241,2085,2100,2095,2
241,2082,2098,2093,2
241,2081,2098,2093,2
241,2078,2097,2096,2
241,2079,2097,2096,2
241,2079,2099,2096,2
241,2078,2099,2096,2
241,2079,2100,2097,2
241,2079,2099,2097,2
241,2080,2098,2096,2
241,2079,2099,2096,2
241,2079,2100,2096,2
241,2079,2100,2096,2
241,2080,2100,2099,2
241,2081,2101,2100,2
241,2083,2100,2100,2
241,2084,2100,2098,2
241,2084,2098,2098,2
241,2081,2098,2093,2
241,2081,2098,2093,2
241,2078,2098,2093,2
241,2080,2099,2094,2
241,2080,2099,2095,2
241,2079,2097,2095,2
241,2081,2098,2096,2
241,2081,2098,2096,2
241,2080,2098,2096,2
241,2079,2098,2096,2
241,2077,2099,2097,2
241,2078,2099,2098,2
241,2081,2101,2099,2
241,2082,2101,2100,2
241,2085,2101,2100,2
241,2085,2100,2097,2
241,2083,2099,2097,2
241,2080,2099,2095,2
241,2077,2098,2095,2
241,2078,2097,2095,2
241,2079,2098,2095,2
241,2079,2099,2095,2
241,2078,2099,2095,2
241,2079,2099,2096,2
241,2080,2098,2095,2
241,2080,2098,2094,2
241,2080,2099,2095,2
241,2078,2099,2098,2
241,2080,2099,2098,2
241,2080,2101,2099,2
241,2084,2101,2099,2
241,2085,2101,2098,2
241,2086,2100,2096,2
241,2084,2098,2094,2
241,2082,2098,2094,2
241,2079,2099,2095,2
241,2079,2099,2095,2
241,2079,2099,2096,2
241,2078,2099,2096,2
241,2079,2098,2096,2
241,2080,2099,2096,2
241,2080,2098,2095,2
241,2079,2098,2095,2
241,2079,2100,2096,2
241,2078,2100,2096,2
241,2080,2102,2097,2
241,2081,2102,2098,2
241,2084,2101,2098,2
241,2085,2101,2097,2
241,2085,2099,2094,2
241,2081,2098,2094,2
241,2078,2098,2094,2
241,2076,2098,2095,2
241,2077,2098,2095,2
241,2078,2099,2095,2
241,2077,2099,2096,2
241,2078,2099,2096,2
241,2078,2098,2096,2
241,2080,2098,2096,2
241,2079,2099,2095,2
241,2077,2099,2096,2
241,2078,2099,2096,2
241,2081,2101,2097,2
241,2081,2102,2098,2
241,2085,2101,2098,2
241,2085,2101,2095,2
241,2085,2100,2093,2
241,2082,2098,2092,2
241,2081,2099,2093,2
241,2078,2098,2095,2
241,2079,2098,2095,2
241,2079,2099,2095,2
241,2077,2099,2095,2
241,2078,2099,2096,2
241,2079,2098,2096,2
241,2080,2098,2096,2
241,2080,2099,2096,2
241,2078,2101,2096,2
241,2080,2101,2096,2
241,2082,2101,2098,2
241,2083,2101,2098,2
241,2085,2100,2098,2
241,2085,2100,2096,2
241,2084,2099,2093,2
241,2078,2099,2093,2
241,2078,2099,2094,2
241,2078,2099,2094,2
241,2079,2099,2094,2
241,2078,2099,2095,2
241,2079,2098,2095,2
241,2081,2099,2096,2
241,2081,2099,2095,2
241,2080,2099,2095,2
241,2079,2099,2096,2
241,2078,2100,2097,2
241,2079,2100,2097,2
241,2082,2102,2098,2
241,2083,2102,2099,2
241,2085,2102,2099,2
241,2085,2100,2096,2
241,2082,2099,2096,2
241,2080,2099,2094,2
241,2078,2099,2095,2
241,2079,2098,2095,2
241,2080,2099,2096,2
241,2079,2101,2096,2
241,2079,2100,2096,2
241,2081,2100,2097,2
241,2082,2100,2096,2
241,2081,2099,2095,2
241,2081,2101,2096,2
241,2079,2101,2099,2
241,2081,2101,2099,2
241,2081,2102,2099,2
241,2085,2102,2099,2
241,2085,2102,2098,2
241,2085,2100,2096,2
241,2083,2098,2094,2
241,2082,2098,2094,2
241,2079,2098,2095,2
241,2080,2099,2095,2
241,2080,2099,2096,2
241,2078,2099,2096,2
241,2079,2099,2096,2
241,2081,2099,2096,2
241,2083,2099,2095,2
241,2080,2099,2095,2
241,2080,2101,2096,2
241,2080,2101,2096,2
241,2081,2102,2097,2
241,2082,2102,2098,2
241,2084,2101,2098,2
241,2084,2101,2097,2
241,2085,2099,2095,2
241,2079,2098,2095,2
241,2078,2098,2095,2
241,2077,2098,2096,2
241,2079,2098,2096,2
241,2079,2100,2096,2
241,2078,2100,2097,2
241,2081,2100,2097,2
241,2081,2100,2096,2
241,2082,2100,2096,2
241,2081,2101,2096,2
241,2079,2101,2097,2
241,2080,2100,2097,2
241,2082,2101,2098,2
241,2083,2102,2098,2
241,2086,2101,2098,2
241,2086,2101,2095,2
241,2085,2100,2093,2
241,2082,2099,2092,2
241,2082,2100,2093,2
241,2081,2099,2094,2
241,2081,2099,2094,2
241,2081,2099,2095,2
241,2079,2098,2095,2
241,2081,2099,2095,2
241,2083,2099,2095,2
241,2083,2099,2094,2
241,2083,2100,2094,2
241,2081,2101,2096,2
241,2082,2102,2096,2
241,2084,2102,2099,2
241,2085,2102,2099,2
241,2085,2101,2098,2
241,2084,2100,2097,2
241,2083,2099,2094,2
241,2078,2099,2094,2
241,2078,2099,2095,2
241,2079,2099,2095,2
241,2079,2099,2095,2
241,2078,2099,2096,2
241,2079,2098,2096,2
241,2082,2099,2096,2
241,2083,2099,2095,2
241,2081,2100,2095,2
241,2080,2100,2096,2
241,2079,2101,2098,2
241,2081,2101,2098,2
241,2084,2102,2099,2
241,2086,2102,2098,2
241,2086,2102,2098,2
241,2086,2099,2095,2
241,2082,2099,2095,2
241,2080,2099,2094,2
241,2077,2099,2095,2
241,2079,2099,2096,2
241,2080,2100,2096,2
241,2078,2100,2096,2
241,2081,2100,2096,2
241,2082,2100,2096,2
241,2083,2100,2096,2
241,2082,2100,2096,2
