Group ID,Avg Short,Avg Long1,Avg Long2,Emitter
3,2036,2037,2062,2
3,2042,2043,2067,1
3,2053,2054,2078,2
243,2085,2087,2111,1
243,2086,2087,2111,1
243,2086,2089,2113,1
243,2087,2089,2115,1
243,2089,2089,2114,1
243,2089,2089,2114,1
243,2090,2089,2116,1
243,2090,2089,2115,1
243,2088,2088,2115,1
243,2089,2088,2114,1
243,2089,2090,2116,1
243,2091,2092,2118,1
243,2094,2094,2119,1
243,2094,2095,2120,1
243,2094,2094,2120,1
243,2091,2094,2116,1
243,2091,2086,2113,1
243,2088,2085,2112,1
243,2091,2085,2112,1
243,2090,2087,2112,1
243,2090,2088,2114,1
243,2090,2088,2115,1
243,2090,2089,2115,1
243,2090,2089,2116,1
243,2090,2088,2115,1
243,2089,2087,2115,1
243,2091,2087,2115,1
243,2091,2090,2116,1
243,2094,2092,2118,1
243,2094,2092,2120,1
243,2094,2094,2120,1
243,2094,2092,2120,1
243,2091,2091,2117,1
243,2087,2087,2113,1
243,2086,2086,2112,1
243,2090,2087,2112,1
243,2090,2089,2112,1
243,2090,2089,2113,1
243,2090,2089,2114,1
243,2091,2090,2115,1
243,2091,2091,2115,1
243,2089,2089,2113,1
243,2089,2089,2113,1
243,2091,2089,2116,1
243,2091,2093,2118,1
243,2095,2094,2118,1
243,2096,2095,2119,1
243,2095,2095,2119,1
243,2095,2092,2120,1
243,2087,2090,2116,1
243,2087,2085,2116,1
243,2087,2085,2112,1
243,2087,2088,2113,1
243,2089,2088,2113,1
243,2090,2089,2113,1
243,2089,2089,2113,1
243,2090,2089,2115,1
243,2090,2090,2115,1
243,2090,2088,2114,1
243,2089,2089,2114,1
243,2091,2089,2116,1
243,2092,2091,2118,1
243,2094,2093,2120,1
243,2097,2095,2121,1
243,2096,2095,2118,1
243,2091,2095,2118,1
243,2091,2088,2114,1
243,2086,2086,2114,1
243,2087,2085,2113,1
243,2087,2087,2113,1
243,2089,2087,2115,1
243,2090,2089,2114,1
243,2090,2091,2115,1
243,2091,2090,2115,1
243,2090,2090,2114,1
243,2088,2089,2113,1
243,2089,2090,2114,1
243,2092,2091,2115,1
243,2093,2093,2118,1
243,2096,2093,2118,1
243,2096,2095,2119,1
243,2096,2094,2119,1
243,2093,2094,2116,1
243,2089,2090,2112,1
243,2087,2087,2111,1
243,2090,2086,2111,1
243,2090,2088,2112,1
243,2089,2088,2112,1
243,2090,2088,2113,1
243,2090,2090,2114,1
243,2091,2090,2115,1
243,2091,2090,2114,1
243,2088,2088,2114,1
243,2090,2088,2114,1
243,2090,2091,2116,1
243,2093,2093,2116,1
243,2095,2093,2118,1
243,2095,2094,2118,1
243,2095,2093,2120,1
243,2093,2092,2117,1
243,2088,2088,2111,1
243,2085,2088,2111,1
243,2087,2088,2113,1
243,2087,2090,2113,1
243,2088,2090,2114,1
243,2090,2090,2114,1
243,2090,2090,2114,1
243,2091,2089,2115,1
243,2091,2089,2113,1
243,2088,2089,2113,1
243,2090,2089,2115,1
243,2090,2091,2116,1
243,2093,2093,2119,1
243,2096,2095,2119,1
243,2096,2095,2120,1
243,2092,2092,2120,1
243,2089,2092,2114,1
243,2089,2086,2112,1
243,2088,2087,2111,1
243,2090,2088,2112,1
243,2090,2088,2112,1
243,2091,2089,2114,1
243,2091,2089,2116,1
243,2092,2089,2116,1
243,2091,2089,2115,1
243,2091,2088,2113,1
243,2091,2088,2113,1
243,2093,2089,2114,1
243,2093,2091,2115,1
243,2095,2095,2118,1
243,2096,2095,2120,1
243,2096,2095,2119,1
243,2093,2092,2119,1
243,2090,2089,2115,1
243,2086,2087,2112,1
243,2087,2088,2112,1
243,2089,2089,2113,1
243,2089,2089,2113,1
243,2089,2089,2114,1
243,2089,2090,2115,1
243,2090,2090,2116,1
243,2090,2090,2114,1
243,2088,2089,2112,1
243,2089,2091,2112,1
243,2091,2091,2117,1
243,2091,2095,2119,1
243,2095,2096,2119,1
243,2096,2097,2120,1
243,2095,2096,2118,1
243,2092,2091,2117,1
243,2087,2088,2113,1
243,2087,2086,2113,1
243,2088,2086,2113,1
243,2088,2089,2114,1
243,2090,2089,2114,1
243,2091,2089,2114,1
243,2091,2090,2114,1
243,2092,2089,2116,1
243,2090,2089,2115,1
243,2090,2088,2115,1
243,2091,2090,2115,1
243,2093,2090,2117,1
243,2093,2092,2118,1
243,2095,2093,2120,1
243,2096,2094,2120,1
243,2096,2092,2120,1
243,2092,2092,2115,1
243,2092,2086,2112,1
243,2088,2086,2112,1
243,2090,2087,2113,1
243,2090,2088,2113,1
243,2090,2088,2114,1
243,2092,2088,2114,1
243,2092,2090,2114,1
243,2090,2089,2114,1
243,2089,2089,2113,1
243,2087,2089,2113,1
243,2090,2091,2115,1
243,2093,2093,2116,1
243,2093,2094,2119,1
243,2096,2094,2119,1
243,2096,2095,2120,1
243,2094,2092,2120,1
243,2090,2090,2117,1
243,2086,2087,2113,1
243,2087,2087,2112,1
243,2090,2088,2113,1
243,2090,2089,2114,1
243,2090,2089,2114,1
243,2091,2089,2115,1
243,2091,2090,2115,1
243,2090,2089,2116,1
243,2091,2089,2114,1
243,2089,2089,2116,1
243,2092,2089,2116,1
243,2092,2092,2118,1
243,2095,2094,2118,1
243,2097,2094,2120,1
243,2096,2094,2119,1
243,2095,2091,2119,1
243,2092,2088,2115,1
243,2088,2086,2111,1
243,2088,2087,2111,1
243,2089,2087,2114,1
243,2089,2088,2114,1
243,2089,2089,2115,1
243,2092,2090,2115,1
243,2091,2090,2114,1
243,2091,2089,2115,1
243,2091,2089,2113,1
243,2090,2090,2113,1
243,2092,2090,2116,1
243,2092,2092,2118,1
243,2094,2094,2121,1
243,2096,2095,2121,1
243,2095,2095,2118,1
243,2090,2091,2118,1
243,2087,2091,2112,1
243,2087,2086,2111,1
243,2088,2087,2112,1
243,2090,2089,2112,1
243,2089,2089,2112,1
243,2090,2090,2113,1
243,2090,2090,2116,1
243,2090,2090,2116,1
243,2089,2090,2114,1
243,2089,2088,2114,1
243,2090,2089,2115,1
243,2094,2091,2116,1
243,2094,2093,2116,1
243,2096,2095,2118,1
243,2096,2095,2120,1
243,2096,2092,2118,1
243,2090,2088,2118,1
243,2088,2086,2114,1
243,2085,2086,2113,1
243,2087,2088,2114,1
243,2089,2089,2114,1
243,2089,2089,2114,1
243,2090,2089,2115,1
243,2090,2090,2116,1
243,2090,2090,2117,1
243,2090,2089,2115,1
243,2088,2088,2114,1
243,2090,2091,2115,1
243,2092,2091,2119,1
243,2092,2095,2120,1
243,2096,2096,2120,1
243,2096,2096,2120,1
243,2094,2093,2117,1
243,2090,2089,2115,1
243,2087,2086,2112,1
243,2087,2087,2112,1
243,2089,2087,2114,1
243,2089,2089,2114,1
243,2091,2089,2114,1
243,2092,2089,2115,1
243,2091,2090,2114,1
243,2091,2089,2115,1
243,2088,2089,2113,1
243,2088,2089,2114,1
243,2092,2091,2114,1
243,2094,2091,2118,1
243,2094,2093,2119,1
243,2096,2093,2121,1
243,2096,2094,2120,1
243,2093,2090,2120,1
243,2089,2090,2113,1
243,2089,2086,2112,1
243,2089,2087,2112,1
243,2090,2088,2113,1
243,2089,2089,2113,1
243,2091,2089,2114,1
243,2093,2089,2115,1
243,2093,2090,2115,1
243,2091,2089,2115,1
243,2090,2089,2112,1
243,2089,2090,2114,1
243,2091,2092,2116,1
243,2094,2094,2118,1
243,2094,2095,2120,1
243,2096,2095,2120,1
243,2096,2095,2119,1
243,2092,2091,2119,1
243,2089,2091,2112,1
243,2086,2088,2112,1
243,2087,2088,2112,1
243,2090,2089,2113,1
243,2090,2089,2114,1
243,2090,2090,2114,1
243,2090,2090,2116,1
243,2090,2090,2115,1
243,2089,2089,2115,1
243,2091,2088,2114,1
243,2090,2090,2115,1
243,2093,2093,2118,1
243,2093,2093,2121,1
243,2096,2095,2121,1
243,2096,2095,2122,1
243,2096,2094,2119,1
243,2092,2090,2118,1
243,2090,2087,2114,1
243,2087,2086,2112,1
243,2089,2088,2113,1
243,2089,2088,2114,1
243,2089,2089,2114,1
243,2091,2090,2114,1
243,2092,2091,2115,1
243,2091,2090,2113,1
243,2090,2088,2114,1
243,2090,2088,2115,1
243,2092,2090,2115,1
243,2094,2090,2119,1
243,2094,2094,2120,1
243,2096,2094,2122,1
243,2097,2095,2122,1
243,2095,2093,2118,1
243,2092,2086,2116,1
243,2089,2086,2111,1
243,2089,2086,2112,1
243,2092,2088,2112,1
243,2092,2089,2113,1
243,2091,2089,2113,1
243,2092,2090,2115,1
243,2091,2091,2115,1
243,2091,2090,2113,1
243,2089,2090,2113,1
243,2089,2089,2114,1
243,2091,2091,2116,1
243,2094,2092,2118,1
243,2094,2093,2118,1
243,2096,2095,2121,1
243,2094,2095,2120,1
243,2094,2090,2116,1
243,2088,2087,2116,1
243,2088,2085,2113,1
243,2086,2086,2113,1
243,2088,2087,2115,1
243,2090,2088,2115,1
243,2090,2089,2115,1
243,2091,2089,2116,1
243,2091,2090,2116,1
243,2091,2089,2116,1
243,2090,2089,2114,1
243,2089,2089,2114,1
243,2091,2091,2117,1
243,2093,2093,2121,1
243,2093,2095,2121,1
243,2096,2095,2121,1
243,2094,2095,2119,1
243,2091,2092,2115,1
243,2089,2088,2112,1
243,2090,2086,2111,1
243,2089,2087,2114,1
243,2090,2087,2114,1
243,2090,2088,2114,1
243,2090,2089,2114,1
243,2091,2091,2115,1
243,2090,2091,2115,1
243,2090,2089,2116,1
243,2091,2088,2114,1
243,2091,2091,2116,1
243,2094,2093,2116,1
243,2095,2093,2120,1
243,2095,2094,2121,1
243,2095,2094,2122,1
243,2094,2094,2119,1
243,2091,2090,2112,1
243,2086,2090,2112,1
243,2086,2087,2113,1
243,2089,2089,2113,1
243,2089,2089,2114,1
243,2088,2089,2114,1
243,2089,2090,2115,1
243,2091,2091,2116,1
243,2091,2091,2114,1
243,2089,2089,2114,1
243,2090,2089,2114,1
243,2090,2092,2116,1
243,2092,2093,2119,1
243,2095,2095,2120,1
243,2095,2096,2120,1
243,2095,2096,2120,1
243,2095,2093,2117,1
243,2088,2089,2117,1
243,2087,2089,2111,1
243,2085,2088,2112,1
243,2088,2089,2114,1
243,2090,2090,2114,1
243,2089,2090,2115,1
243,2090,2091,2115,1
243,2090,2091,2116,1
243,2090,2090,2115,1
243,2089,2089,2115,1
243,2092,2089,2115,1
243,2092,2091,2116,1
243,2094,2095,2119,1
243,2094,2095,2122,1
243,2096,2096,2122,1
243,2095,2096,2121,1
243,2093,2093,2117,1
243,2090,2089,2115,1
243,2090,2086,2112,1
243,2088,2087,2114,1
243,2090,2089,2114,1
243,2090,2089,2114,1
243,2090,2089,2115,1
243,2091,2089,2116,1
243,2091,2090,2115,1
243,2090,2090,2113,1
243,2089,2090,2113,1
243,2089,2090,2117,1
243,2092,2092,2117,1
243,2094,2092,2121,1
243,2094,2095,2122,1
243,2095,2095,2123,1
243,2094,2096,2121,1
243,2091,2093,2116,1
243,2088,2086,2114,1
243,2088,2086,2112,1
243,2088,2088,2113,1
243,2090,2088,2113,1
243,2091,2088,2113,1
243,2090,2089,2113,1
243,2091,2089,2115,1
243,2091,2090,2115,1
243,2091,2089,2115,1
243,2091,2089,2113,1
243,2091,2090,2115,1
243,2093,2092,2118,1
243,2096,2094,2119,1
243,2096,2095,2119,1
243,2097,2095,2121,1
243,2094,2095,2118,1
243,2094,2088,2114,1
243,2087,2086,2114,1
243,2089,2086,2113,1
243,2089,2088,2113,1
243,2090,2088,2114,1
243,2091,2089,2114,1
243,2091,2091,2114,1
243,2091,2091,2116,1
243,2091,2090,2115,1
243,2090,2089,2115,1
243,2092,2088,2114,1
243,2092,2090,2115,1
243,2094,2094,2117,1
243,2095,2094,2120,1
243,2095,2096,2121,1
243,2096,2095,2121,1
243,2093,2094,2118,1
243,2089,2090,2114,1
243,2087,2088,2112,1
243,2090,2088,2112,1
243,2090,2090,2112,1
243,2090,2090,2114,1
243,2090,2090,2114,1
243,2092,2090,2114,1
243,2092,2091,2115,1
243,2091,2090,2113,1
243,2090,2089,2113,1
243,2091,2089,2115,1
243,2091,2093,2117,1
243,2095,2095,2117,1
243,2096,2097,2119,1
243,2096,2097,2119,1
243,2096,2094,2121,1
243,2088,2092,2118,1
243,2088,2087,2118,1
243,2087,2087,2113,1
243,2087,2088,2114,1
243,2090,2088,2114,1
243,2091,2089,2114,1
243,2090,2089,2114,1
243,2091,2090,2116,1
243,2091,2091,2116,1
243,2091,2090,2115,1
243,2089,2090,2115,1
243,2091,2090,2116,1
243,2091,2092,2118,1
243,2094,2094,2120,1
243,2097,2095,2120,1
243,2097,2095,2119,1
243,2094,2095,2119,1
243,2094,2090,2116,1
243,2087,2087,2116,1
243,2087,2087,2112,1
243,2087,2088,2113,1
243,2089,2089,2115,1
243,2091,2089,2115,1
243,2091,2090,2116,1
243,2092,2091,2116,1
243,2091,2091,2115,1
243,2089,2090,2113,1
243,2090,2090,2113,1
243,2093,2091,2114,1
243,2093,2093,2118,1
243,2096,2093,2118,1
243,2096,2095,2120,1
243,2097,2095,2120,1
243,2095,2095,2118,1
243,2091,2091,2114,1
243,2088,2088,2112,1
243,2089,2087,2112,1
243,2089,2089,2114,1
243,2091,2089,2114,1
243,2091,2089,2114,1
243,2090,2090,2114,1
243,2091,2090,2116,1
243,2092,2090,2115,1
243,2090,2089,2113,1
243,2091,2089,2113,1
243,2091,2092,2115,1
243,2094,2094,2115,1
243,2096,2094,2119,1
243,2096,2095,2120,1
243,2097,2094,2122,1
243,2095,2094,2119,1
243,2091,2090,2111,1
243,2086,2088,2111,1
243,2088,2088,2113,1
243,2088,2090,2113,1
243,2089,2090,2115,1
243,2091,2090,2115,1
243,2091,2091,2115,1
243,2092,2090,2116,1
243,2092,2090,2115,1
243,2089,2089,2115,1
243,2091,2089,2115,1
243,2091,2091,2117,1
243,2093,2093,2119,1
243,2096,2095,2119,1
243,2096,2096,2120,1
243,2095,2094,2120,1
243,2091,2094,2116,1
243,2091,2086,2113,1
243,2089,2086,2112,1
243,2091,2087,2113,1
243,2091,2088,2113,1
243,2091,2089,2115,1
243,2091,2089,2116,1
243,2093,2089,2116,1
243,2093,2089,2116,1
243,2091,2088,2115,1
243,2090,2088,2115,1
243,2093,2089,2115,1
243,2093,2091,2119,1
243,2096,2093,2119,1
243,2097,2093,2121,1
243,2097,2094,2121,1
243,2096,2092,2121,1
243,2092,2090,2117,1
243,2088,2087,2113,1
243,2088,2088,2112,1
243,2088,2088,2115,1
243,2091,2089,2115,1
243,2091,2089,2115,1
243,2090,2089,2115,1
243,2091,2090,2117,1
243,2092,2090,2116,1
243,2090,2089,2114,1
243,2089,2090,2114,1
243,2091,2090,2117,1
243,2091,2093,2118,1
243,2093,2095,2121,1
243,2096,2096,2121,1
243,2096,2096,2119,1
243,2094,2090,2119,1
243,2094,2090,2113,1
243,2087,2088,2113,1
243,2088,2088,2112,1
243,2088,2089,2113,1
243,2089,2089,2115,1
243,2091,2089,2114,1
243,2090,2090,2116,1
243,2091,2090,2116,1
243,2090,2090,2115,1
243,2090,2089,2114,1
243,2090,2090,2115,1
243,2093,2091,2117,1
243,2094,2093,2118,1
243,2096,2095,2120,1
243,2097,2095,2120,1
243,2097,2095,2120,1
243,2094,2095,2117,1
243,2094,2088,2113,1
243,2091,2086,2112,1
243,2092,2086,2112,1
243,2091,2088,2112,1
243,2090,2088,2114,1
243,2090,2088,2115,1
243,2090,2090,2116,1
243,2091,2090,2116,1
243,2090,2090,2115,1
243,2088,2088,2114,1
243,2090,2089,2115,1
243,2090,2091,2118,1
243,2094,2093,2118,1
243,2096,2093,2121,1
243,2096,2095,2121,1
243,2096,2094,2122,1
243,2093,2093,2119,1
243,2089,2089,2114,1
243,2088,2087,2112,1
243,2089,2087,2114,1
243,2089,2089,2115,1
243,2090,2089,2115,1
243,2091,2090,2115,1
243,2091,2091,2115,1
243,2091,2090,2117,1
243,2089,2090,2116,1
243,2089,2089,2116,1
243,2091,2089,2117,1
243,2091,2091,2119,1
243,2093,2093,2121,1
243,2096,2095,2121,1
243,2096,2095,2120,1
243,2096,2091,2121,1
243,2091,2091,2115,1
243,2091,2086,2113,1
243,2089,2087,2113,1
243,2091,2088,2114,1
243,2091,2089,2114,1
243,2091,2089,2115,1
243,2093,2090,2115,1
243,2093,2092,2115,1
243,2092,2092,2116,1
243,2092,2090,2115,1
243,2091,2090,2115,1
243,2093,2091,2116,1
243,2093,2092,2118,1
243,2095,2095,2120,1
243,2096,2095,2123,1
243,2096,2096,2121,1
243,2093,2093,2121,1
243,2090,2091,2116,1
243,2086,2088,2113,1
243,2087,2088,2113,1
243,2090,2089,2114,1
243,2090,2090,2114,1
243,2090,2090,2115,1
243,2090,2090,2116,1
243,2091,2090,2117,1
243,2091,2090,2116,1
243,2089,2089,2114,1
243,2090,2090,2114,1
243,2091,2090,2118,1
243,2091,2094,2120,1
243,2096,2095,2120,1
243,2097,2096,2120,1
243,2096,2096,2118,1
243,2094,2092,2118,1
243,2088,2089,2114,1
243,2088,2087,2114,1
243,2089,2087,2114,1
243,2089,2090,2114,1
243,2090,2090,2115,1
243,2091,2090,2115,1
243,2091,2091,2115,1
243,2092,2090,2117,1
243,2090,2090,2116,1
243,2090,2089,2115,1
243,2091,2090,2115,1
243,2094,2092,2117,1
243,2094,2094,2118,1
243,2095,2095,2121,1
243,2096,2096,2121,1
243,2096,2094,2121,1
243,2092,2094,2116,1
243,2092,2087,2113,1
243,2090,2087,2112,1
243,2092,2087,2113,1
243,2092,2088,2112,1
243,2092,2088,2114,1
243,2092,2088,2116,1
243,2092,2090,2116,1
243,2091,2090,2116,1
243,2091,2090,2115,1
243,2089,2090,2115,1
243,2091,2091,2116,1
243,2096,2093,2118,1
243,2096,2096,2118,1
243,2096,2096,2121,1
243,2096,2097,2121,1
243,2095,2094,2122,1
243,2092,2092,2118,1
243,2088,2089,2114,1
243,2087,2089,2113,1
243,2089,2089,2116,1
243,2089,2090,2117,1
243,2090,2090,2117,1
243,2092,2090,2117,1
243,2092,2091,2117,1
243,2092,2090,2117,1
243,2090,2090,2115,1
243,2090,2091,2115,1
243,2092,2091,2117,1
243,2092,2094,2119,1
243,2096,2094,2119,1
243,2097,2096,2120,1
243,2097,2096,2119,1
243,2095,2090,2119,1
243,2091,2090,2113,1
243,2091,2086,2112,1
243,2090,2088,2112,1
243,2091,2089,2114,1
243,2090,2089,2114,1
243,2090,2089,2115,1
243,2093,2090,2115,1
243,2093,2091,2115,1
243,2092,2091,2115,1
243,2092,2089,2114,1
243,2091,2090,2114,1
243,2093,2091,2116,1
243,2093,2093,2117,1
243,2095,2096,2120,1
243,2096,2096,2122,1
243,2096,2095,2120,1
243,2092,2092,2120,1
243,2089,2089,2116,1
243,2086,2087,2114,1
243,2089,2088,2114,1
243,2091,2090,2114,1
243,2091,2090,2114,1
243,2091,2090,2115,1
243,2091,2092,2116,1
243,2092,2091,2117,1
243,2091,2091,2116,1
243,2089,2089,2115,1
243,2091,2092,2115,1
243,2093,2092,2119,1
243,2093,2095,2121,1
243,2096,2096,2121,1
243,2096,2097,2121,1
243,2095,2095,2118,1
243,2093,2090,2117,1
243,2088,2088,2114,1
243,2088,2087,2114,1
243,2091,2087,2114,1
243,2091,2089,2115,1
243,2091,2089,2116,1
243,2092,2090,2116,1
243,2091,2091,2116,1
243,2091,2090,2117,1
243,2089,2090,2115,1
243,2089,2090,2115,1
243,2092,2091,2115,1
243,2095,2093,2117,1
243,2095,2094,2118,1
243,2097,2095,2121,1
243,2096,2096,2121,1
243,2096,2092,2121,1
243,2091,2092,2115,1
243,2091,2086,2113,1
243,2089,2087,2112,1
243,2091,2088,2113,1
243,2091,2089,2113,1
243,2091,2090,2114,1
243,2092,2090,2116,1
243,2092,2092,2116,1
243,2091,2091,2116,1
243,2091,2090,2115,1
243,2089,2090,2115,1
243,2092,2091,2117,1
243,2097,2093,2118,1
243,2097,2096,2118,1
243,2097,2096,2121,1
243,2097,2096,2120,1
243,2095,2093,2120,1
243,2092,2091,2116,1
243,2088,2088,2113,1
243,2088,2089,2112,1
243,2089,2089,2115,1
243,2089,2090,2115,1
243,2091,2090,2115,1
243,2093,2091,2116,1
243,2092,2091,2115,1
243,2092,2089,2116,1
243,2091,2089,2114,1
243,2091,2091,2114,1
243,2093,2091,2118,1
243,2093,2095,2120,1
243,2095,2096,2122,1
243,2097,2096,2122,1
243,2097,2095,2119,1
243,2095,2089,2119,1
243,2088,2089,2114,1
243,2088,2086,2113,1
243,2090,2088,2113,1
243,2091,2089,2114,1
243,2090,2089,2114,1
243,2092,2090,2115,1
243,2093,2091,2115,1
243,2093,2091,2115,1
243,2091,2091,2115,1
243,2091,2088,2115,1
243,2093,2090,2115,1
243,2096,2092,2117,1
243,2095,2094,2118,1
243,2097,2096,2120,1
243,2097,2096,2122,1
243,2097,2094,2119,1
243,2091,2090,2119,1
243,2089,2087,2115,1
243,2086,2087,2114,1
243,2088,2088,2115,1
243,2090,2090,2115,1
243,2090,2090,2115,1
243,2091,2090,2116,1
243,2091,2092,2117,1
243,2091,2091,2118,1
243,2091,2091,2116,1
243,2089,2090,2115,1
243,2091,2092,2116,1
243,2093,2092,2120,1
243,2093,2095,2121,1
243,2096,2096,2121,1
243,2096,2097,2121,1
243,2094,2094,2118,1
243,2091,2090,2117,1
243,2088,2087,2114,1
243,2088,2088,2114,1
243,2090,2088,2116,1
243,2090,2090,2116,1
243,2090,2090,2117,1
243,2092,2090,2116,1
243,2091,2090,2116,1
243,2091,2090,2117,1
243,2090,2090,2115,1
243,2090,2090,2116,1
243,2093,2091,2116,1
243,2096,2093,2118,1
243,2096,2094,2119,1
243,2097,2094,2121,1
243,2094,2095,2120,1
243,2094,2090,2120,1
243,2090,2090,2114,1
243,2090,2086,2112,1
243,2090,2087,2112,1
243,2092,2088,2114,1
243,2091,2088,2113,1
243,2091,2089,2114,1
243,2092,2089,2117,1
243,2092,2090,2117,1
243,2091,2089,2117,1
243,2091,2089,2115,1
243,2089,2090,2115,1
243,2092,2092,2117,1
243,2096,2094,2119,1
243,2096,2097,2119,1
243,2096,2097,2122,1
243,2096,2096,2120,1
243,2092,2092,2120,1
243,2090,2089,2115,1
243,2087,2087,2113,1
243,2089,2089,2114,1
243,2089,2089,2116,1
243,2089,2090,2116,1
243,2091,2091,2116,1
243,2092,2092,2116,1
243,2091,2092,2115,1
243,2091,2090,2115,1
243,2092,2090,2114,1
243,2092,2092,2114,1
243,2094,2092,2118,1
243,2094,2095,2120,1
243,2096,2096,2122,1
243,2097,2097,2122,1
243,2096,2095,2118,1
243,2093,2087,2118,1
243,2090,2087,2113,1
243,2090,2086,2113,1
243,2091,2088,2113,1
243,2092,2090,2114,1
243,2091,2090,2114,1
243,2092,2090,2115,1
243,2092,2091,2115,1
243,2092,2090,2115,1
243,2090,2090,2115,1
243,2090,2089,2115,1
243,2091,2091,2117,1
243,2094,2092,2118,1
243,2094,2093,2119,1
243,2096,2096,2121,1
243,2096,2096,2122,1
243,2096,2092,2119,1
243,2089,2088,2119,1
243,2088,2086,2116,1
243,2086,2086,2116,1
243,2089,2087,2117,1
243,2090,2088,2116,1
243,2090,2090,2116,1
243,2091,2090,2117,1
243,2091,2091,2117,1
243,2091,2091,2117,1
243,2090,2090,2115,1
243,2088,2090,2115,1
243,2091,2092,2117,1
243,2095,2094,2119,1
243,2095,2096,2120,1
243,2098,2096,2120,1
243,2096,2096,2120,1
243,2093,2093,2116,1
243,2090,2089,2114,1
243,2090,2087,2112,1
243,2088,2089,2112,1
243,2089,2089,2116,1
243,2089,2089,2116,1
243,2090,2089,2116,1
243,2092,2090,2117,1
243,2091,2090,2116,1
243,2091,2089,2117,1
243,2091,2089,2115,1
243,2091,2091,2116,1
243,2094,2093,2116,1
243,2096,2093,2120,1
243,2096,2095,2120,1
243,2097,2095,2122,1
243,2096,2096,2121,1
243,2092,2090,2121,1
243,2089,2090,2113,1
243,2089,2086,2112,1
243,2090,2088,2112,1
243,2091,2090,2114,1
243,2090,2090,2114,1
243,2091,2091,2115,1
243,2093,2091,2115,1
243,2093,2091,2115,1
243,2090,2090,2115,1
243,2091,2090,2113,1
243,2091,2091,2115,1
243,2093,2093,2118,1
243,2096,2095,2119,1
243,2096,2096,2121,1
243,2097,2096,2121,1
243,2097,2095,2119,1
243,2091,2091,2119,1
243,2089,2088,2115,1
243,2086,2087,2113,1
243,2088,2088,2114,1
243,2090,2090,2114,1
243,2090,2090,2115,1
243,2091,2091,2115,1
243,2092,2091,2117,1
243,2091,2091,2116,1
243,2090,2089,2116,1
243,2093,2088,2115,1
243,2092,2090,2118,1
243,2095,2090,2118,1
243,2095,2094,2121,1
243,2098,2095,2121,1
243,2098,2095,2120,1
243,2096,2093,2117,1
243,2093,2089,2116,1
243,2089,2087,2113,1
243,2089,2087,2114,1
243,2091,2088,2114,1
243,2091,2088,2115,1
243,2090,2089,2115,1
243,2091,2090,2116,1
243,2093,2091,2116,1
243,2092,2091,2114,1
243,2088,2091,2114,1
243,2088,2090,2115,1
243,2092,2092,2115,1
243,2094,2092,2119,1
243,2094,2094,2120,1
243,2096,2095,2122,1
243,2096,2096,2122,1
243,2094,2091,2118,1
243,2087,2088,2118,1
243,2087,2088,2113,1
243,2087,2089,2114,1
243,2089,2089,2116,1
243,2091,2090,2115,1
243,2090,2090,2116,1
243,2092,2090,2116,1
243,2092,2091,2116,1
243,2091,2090,2116,1
243,2090,2090,2113,1
243,2089,2090,2114,1
243,2092,2092,2116,1
243,2095,2094,2118,1
243,2095,2096,2120,1
243,2097,2096,2120,1
243,2095,2096,2118,1
243,2092,2093,2114,1
243,2089,2090,2112,1
243,2091,2087,2111,1
243,2089,2088,2114,1
243,2090,2088,2114,1
243,2090,2089,2114,1
243,2091,2090,2114,1
243,2092,2090,2116,1
243,2091,2090,2115,1
243,2091,2089,2115,1
243,2091,2088,2114,1
243,2091,2091,2116,1
243,2094,2093,2116,1
243,2096,2093,2120,1
243,2096,2094,2121,1
243,2097,2094,2123,1
243,2095,2094,2120,1
243,2091,2090,2112,1
243,2086,2090,2112,1
243,2086,2088,2112,1
243,2089,2089,2112,1
243,2090,2089,2114,1
243,2089,2089,2114,1
243,2090,2090,2116,1
243,2092,2091,2116,1
243,2091,2091,2114,1
243,2089,2089,2114,1
243,2090,2089,2114,1
243,2090,2092,2116,1
243,2093,2093,2119,1
243,2096,2095,2120,1
243,2096,2096,2120,1
243,2096,2096,2122,1
243,2096,2093,2119,1
243,2089,2089,2119,1
243,2088,2089,2113,1
243,2086,2089,2113,1
243,2089,2090,2115,1
243,2091,2091,2115,1
243,2090,2091,2115,1
243,2092,2091,2115,1
243,2091,2091,2116,1
243,2091,2090,2115,1
243,2090,2089,2115,1
243,2092,2089,2115,1
243,2092,2091,2116,1
243,2095,2095,2119,1
243,2095,2095,2121,1
243,2098,2096,2121,1
243,2097,2096,2121,1
243,2094,2093,2118,1
243,2091,2089,2116,1
243,2091,2087,2114,1
243,2089,2088,2115,1
243,2091,2089,2115,1
243,2091,2089,2115,1
243,2091,2090,2115,1
243,2092,2091,2117,1
243,2092,2092,2116,1
243,2091,2091,2114,1
243,2091,2090,2114,1
243,2091,2090,2117,1
243,2094,2092,2117,1
243,2096,2092,2119,1
243,2096,2094,2120,1
243,2097,2095,2122,1
243,2096,2095,2120,1
243,2093,2092,2113,1
243,2087,2089,2113,1
243,2087,2089,2111,1
243,2087,2090,2113,1
243,2088,2090,2115,1
243,2089,2090,2115,1
243,2089,2090,2115,1
243,2091,2090,2117,1
243,2091,2090,2116,1
243,2089,2089,2116,1
243,2089,2089,2114,1
243,2089,2091,2116,1
243,2092,2093,2118,1
243,2095,2095,2119,1
243,2095,2096,2120,1
243,2097,2095,2122,1
243,2094,2095,2119,1
243,2094,2089,2115,1
243,2088,2087,2115,1
243,2089,2086,2114,1
243,2089,2088,2115,1
243,2090,2088,2117,1
243,2090,2089,2117,1
243,2091,2090,2117,1
243,2092,2090,2118,1
243,2092,2089,2117,1
243,2091,2088,2117,1
243,2093,2088,2116,1
243,2092,2090,2116,1
243,2095,2094,2119,1
243,2096,2094,2121,1
243,2096,2097,2121,1
243,2097,2096,2121,1
243,2094,2094,2118,1
243,2090,2090,2114,1
243,2088,2088,2113,1
243,2088,2088,2114,1
243,2090,2090,2114,1
243,2090,2090,2115,1
243,2090,2089,2115,1
243,2091,2090,2116,1
243,2092,2091,2116,1
243,2091,2090,2114,1
243,2090,2089,2114,1
243,2091,2089,2115,1
243,2091,2092,2117,1
243,2095,2094,2117,1
243,2097,2095,2119,1
243,2097,2095,2119,1
243,2097,2093,2121,1
243,2090,2091,2118,1
243,2090,2086,2118,1
243,2089,2086,2113,1
243,2089,2087,2114,1
243,2090,2088,2116,1
243,2091,2089,2116,1
243,2090,2089,2116,1
243,2091,2091,2117,1
243,2091,2091,2117,1
243,2091,2090,2115,1
243,2089,2090,2115,1
243,2091,2090,2116,1
243,2091,2092,2117,1
243,2094,2094,2120,1
243,2097,2096,2121,1
243,2097,2096,2121,1
243,2094,2096,2120,1
243,2094,2091,2116,1
243,2090,2088,2114,1
243,2090,2086,2112,1
243,2089,2088,2113,1
243,2090,2089,2115,1
243,2090,2089,2116,1
243,2090,2090,2117,1
243,2092,2091,2117,1
243,2092,2091,2116,1
243,2090,2090,2114,1
243,2091,2090,2114,1
243,2094,2091,2115,1
243,2094,2095,2115,1
243,2095,2095,2120,1
243,2095,2096,2121,1
243,2097,2096,2121,1
243,2095,2096,2119,1
243,2092,2092,2114,1
243,2089,2089,2112,1
243,2091,2088,2111,1
243,2091,2090,2113,1
243,2092,2090,2113,1
243,2092,2090,2114,1
243,2090,2091,2115,1
243,2091,2091,2117,1
243,2092,2091,2116,1
243,2090,2088,2116,1
243,2090,2088,2115,1
243,2090,2091,2117,1
243,2094,2093,2117,1
243,2096,2095,2118,1
243,2096,2096,2119,1
243,2096,2094,2121,1
243,2091,2094,2118,1
243,2091,2087,2115,1
243,2087,2086,2115,1
243,2089,2086,2114,1
243,2089,2088,2114,1
243,2090,2089,2115,1
243,2092,2090,2115,1
243,2091,2091,2117,1
243,2091,2091,2117,1
243,2091,2090,2116,1
243,2089,2089,2116,1
243,2091,2089,2115,1
243,2091,2091,2117,1
243,2094,2093,2120,1
243,2097,2095,2121,1
243,2097,2096,2121,1
243,2095,2094,2121,1
243,2091,2094,2116,1
243,2087,2090,2113,1
243,2087,2089,2112,1
243,2090,2089,2113,1
243,2090,2089,2114,1
243,2090,2089,2114,1
243,2090,2090,2115,1
243,2092,2091,2115,1
243,2091,2091,2115,1
243,2090,2090,2113,1
243,2089,2090,2114,1
243,2092,2090,2115,1
243,2092,2091,2118,1
243,2095,2093,2118,1
243,2096,2093,2120,1
243,2096,2095,2120,1
243,2095,2093,2121,1
243,2092,2091,2116,1
243,2087,2088,2113,1
243,2087,2088,2113,1
243,2087,2089,2114,1
243,2090,2089,2114,1
243,2090,2089,2115,1
243,2089,2090,2115,1
243,2091,2090,2117,1
243,2090,2091,2117,1
243,2090,2089,2115,1
243,2090,2090,2115,1
243,2092,2090,2117,1
243,2092,2093,2118,1
243,2095,2094,2120,1
243,2097,2095,2120,1
243,2096,2095,2118,1
243,2092,2095,2118,1
243,2092,2089,2114,1
243,2087,2087,2114,1
243,2088,2087,2112,1
243,2088,2088,2113,1
243,2090,2088,2115,1
243,2092,2089,2115,1
243,2091,2089,2115,1
243,2092,2089,2115,1
243,2091,2089,2114,1
243,2091,2088,2113,1
243,2091,2089,2114,1
243,2094,2091,2115,1
243,2094,2093,2116,1
243,2096,2095,2119,1
243,2096,2095,2121,1
243,2096,2094,2121,1
243,2093,2094,2117,1
243,2089,2090,2113,1
243,2087,2088,2112,1
243,2090,2087,2112,1
243,2090,2088,2114,1
243,2090,2089,2114,1
243,2090,2089,2115,1
243,2090,2091,2116,1
243,2091,2091,2117,1
243,2091,2091,2115,1
243,2089,2089,2114,1
243,2091,2092,2115,1
243,2091,2092,2119,1
243,2095,2094,2119,1
243,2097,2094,2121,1
243,2097,2096,2121,1
243,2097,2094,2122,1
243,2094,2093,2119,1
243,2090,2089,2113,1
243,2086,2089,2113,1
243,2088,2089,2115,1
243,2088,2090,2115,1
243,2088,2090,2116,1
243,2090,2090,2116,1
243,2090,2091,2116,1
243,2091,2090,2117,1
243,2091,2090,2115,1
243,2089,2090,2115,1
243,2091,2090,2115,1
243,2091,2093,2117,1
243,2094,2094,2120,1
243,2096,2096,2121,1
243,2096,2096,2120,1
243,2093,2093,2120,1
243,2089,2093,2114,1
243,2089,2086,2112,1
243,2089,2087,2112,1
243,2091,2088,2113,1
243,2091,2089,2113,1
243,2091,2089,2114,1
243,2091,2089,2115,1
243,2091,2090,2115,1
243,2091,2090,2115,1
243,2091,2089,2114,1
243,2091,2089,2114,1
243,2093,2090,2115,1
243,2093,2092,2116,1
243,2096,2094,2119,1
243,2096,2094,2121,1
243,2096,2095,2120,1
243,2092,2092,2120,1
243,2089,2090,2116,1
243,2086,2088,2113,1
243,2087,2088,2113,1
243,2090,2090,2114,1
243,2090,2090,2114,1
243,2090,2090,2115,1
243,2090,2091,2116,1
243,2092,2091,2116,1
243,2092,2091,2116,1
243,2090,2089,2114,1
243,2090,2090,2114,1
243,2092,2090,2117,1
243,2092,2094,2119,1
243,2096,2095,2119,1
243,2097,2096,2120,1
243,2096,2096,2118,1
243,2094,2092,2117,1
243,2088,2089,2113,1
243,2088,2086,2113,1
243,2089,2086,2113,1
243,2089,2089,2114,1
243,2091,2089,2114,1
243,2091,2089,2114,1
243,2090,2090,2114,1
243,2091,2090,2116,1
243,2090,2090,2115,1
243,2090,2088,2115,1
243,2091,2090,2115,1
243,2094,2090,2118,1
243,2094,2092,2119,1
243,2096,2093,2121,1
243,2096,2095,2121,1
243,2096,2093,2121,1
243,2092,2093,2116,1
243,2092,2086,2113,1
243,2089,2086,2113,1
243,2091,2086,2113,1
243,2090,2088,2113,1
243,2090,2088,2115,1
243,2093,2089,2115,1
243,2093,2091,2116,1
243,2092,2090,2116,1
243,2091,2090,2113,1
243,2088,2090,2113,1
243,2090,2091,2115,1
243,2093,2093,2117,1
243,2094,2095,2119,1
243,2096,2095,2119,1
243,2096,2096,2119,1
243,2094,2093,2119,1
243,2090,2091,2116,1
243,2086,2088,2112,1
243,2086,2088,2112,1
243,2090,2088,2113,1
243,2090,2089,2114,1
243,2090,2089,2114,1
243,2091,2089,2116,1
243,2091,2090,2115,1
243,2091,2089,2116,1
243,2091,2089,2115,1
243,2089,2089,2116,1
243,2092,2089,2116,1
243,2092,2093,2118,1
243,2096,2094,2118,1
243,2097,2094,2120,1
243,2096,2094,2119,1
243,2095,2091,2119,1
243,2088,2089,2115,1
243,2088,2086,2114,1
243,2088,2087,2114,1
243,2089,2087,2117,1
243,2089,2088,2116,1
243,2090,2089,2117,1
243,2092,2090,2117,1
243,2091,2090,2115,1
243,2090,2090,2115,1
243,2090,2088,2114,1
243,2090,2089,2114,1
243,2092,2089,2117,1
243,2092,2091,2119,1
243,2094,2093,2121,1
243,2097,2095,2121,1
243,2096,2095,2118,1
243,2091,2091,2118,1
243,2088,2091,2112,1
243,2088,2087,2112,1
243,2089,2088,2112,1
243,2091,2090,2113,1
243,2090,2090,2113,1
243,2090,2090,2114,1
243,2090,2091,2115,1
243,2091,2091,2115,1
243,2090,2091,2114,1
243,2088,2089,2114,1
243,2090,2091,2115,1
243,2093,2092,2116,1
243,2093,2094,2119,1
243,2096,2095,2119,1
243,2096,2095,2121,1
243,2096,2093,2118,1
243,2093,2089,2117,1
243,2091,2086,2114,1
243,2088,2086,2113,1
243,2090,2089,2114,1
243,2090,2089,2115,1
243,2090,2089,2115,1
243,2091,2089,2115,1
243,2091,2090,2115,1
243,2091,2089,2116,1
243,2091,2089,2114,1
243,2089,2088,2114,1
243,2091,2092,2115,1
243,2093,2092,2119,1
243,2093,2094,2120,1
243,2096,2095,2120,1
243,2096,2096,2120,1
243,2094,2094,2117,1
243,2091,2089,2116,1
243,2091,2087,2112,1
243,2088,2087,2112,1
243,2090,2087,2114,1
243,2090,2088,2114,1
243,2090,2088,2115,1
243,2092,2089,2115,1
243,2092,2089,2115,1
243,2092,2088,2116,1
243,2090,2088,2114,1
243,2090,2089,2115,1
243,2093,2091,2115,1
243,2095,2093,2117,1
243,2095,2094,2118,1
243,2096,2094,2120,1
243,2094,2095,2120,1
243,2094,2090,2120,1
243,2090,2090,2114,1
243,2090,2085,2112,1
243,2089,2086,2112,1
243,2091,2088,2112,1
243,2090,2089,2112,1
243,2090,2089,2113,1
243,2091,2089,2116,1
243,2091,2090,2116,1
243,2090,2089,2116,1
243,2090,2089,2114,1
243,2089,2089,2115,1
243,2092,2091,2117,1
243,2096,2093,2118,1
243,2096,2095,2118,1
243,2096,2095,2121,1
243,2096,2095,2119,1
243,2092,2091,2119,1
243,2089,2088,2115,1
243,2086,2086,2113,1
243,2087,2087,2113,1
243,2088,2089,2116,1
243,2088,2089,2116,1
243,2090,2090,2116,1
243,2091,2090,2117,1
243,2090,2090,2115,1
243,2090,2089,2115,1
243,2091,2088,2114,1
243,2090,2089,2116,1
243,2093,2089,2116,1
243,2093,2094,2119,1
243,2096,2095,2119,1
243,2097,2096,2119,1
243,2096,2095,2117,1
243,2093,2091,2117,1
243,2088,2087,2113,1
243,2088,2086,2113,1
243,2090,2088,2113,1
243,2090,2088,2114,1
243,2089,2088,2114,1
243,2090,2089,2116,1
243,2092,2091,2116,1
243,2091,2091,2114,1
243,2089,2091,2114,1
243,2089,2089,2115,1
243,2092,2091,2115,1
243,2095,2091,2118,1
243,2095,2093,2119,1
243,2096,2094,2120,1
243,2097,2095,2120,1
243,2095,2093,2115,1
243,2089,2089,2115,1
243,2087,2089,2111,1
243,2087,2088,2112,1
243,2089,2088,2114,1
243,2091,2089,2114,1
243,2090,2089,2114,1
243,2090,2089,2116,1
243,2090,2091,2117,1
243,2090,2090,2117,1
243,2089,2090,2114,1
243,2087,2090,2115,1
243,2090,2092,2117,1
243,2094,2094,2118,1
243,2094,2095,2120,1
243,2096,2095,2120,1
243,2095,2095,2120,1
243,2095,2091,2117,1
243,2091,2088,2115,1
243,2090,2087,2112,1
243,2087,2088,2112,1
243,2089,2089,2114,1
243,2089,2089,2115,1
243,2090,2089,2115,1
243,2091,2089,2116,1
243,2091,2089,2116,1
243,2091,2088,2116,1
243,2091,2088,2114,1
243,2089,2089,2116,1
243,2093,2091,2116,1
243,2095,2091,2120,1
243,2095,2095,2121,1
243,2095,2095,2123,1
243,2094,2095,2120,1
243,2092,2092,2115,1
243,2089,2087,2113,1
243,2089,2087,2111,1
243,2089,2088,2111,1
243,2089,2088,2115,1
243,2089,2089,2115,1
243,2090,2090,2116,1
243,2092,2091,2116,1
243,2091,2091,2115,1
243,2089,2090,2115,1
243,2090,2090,2113,1
243,2090,2091,2115,1
243,2094,2093,2115,1
243,2096,2095,2117,1
243,2096,2096,2118,1
243,2096,2095,2121,1
243,2096,2095,2119,1
243,2090,2091,2119,1
243,2087,2091,2113,1
243,2087,2087,2112,1
243,2089,2088,2113,1
243,2091,2089,2113,1
243,2090,2089,2113,1
243,2091,2091,2114,1
243,2091,2091,2117,1
243,2091,2091,2116,1
243,2089,2089,2116,1
243,2091,2089,2116,1
243,2090,2090,2117,1
243,2093,2092,2119,1
243,2096,2094,2120,1
243,2096,2096,2120,1
243,2096,2096,2121,1
243,2096,2093,2118,1
243,2091,2089,2118,1
243,2089,2087,2114,1
243,2086,2087,2114,1
243,2088,2089,2115,1
243,2089,2089,2116,1
243,2089,2090,2116,1
243,2092,2091,2116,1
243,2092,2091,2117,1
243,2090,2090,2115,1
243,2090,2089,2115,1
243,2093,2089,2115,1
243,2093,2093,2115,1
243,2094,2093,2120,1
243,2094,2095,2121,1
243,2095,2095,2123,1
243,2095,2096,2122,1
243,2093,2093,2117,1
243,2090,2087,2115,1
243,2089,2087,2111,1
243,2089,2088,2112,1
243,2092,2089,2112,1
243,2092,2089,2113,1
243,2090,2089,2113,1
243,2092,2089,2115,1
243,2092,2090,2115,1
243,2092,2089,2115,1
243,2090,2089,2113,1
243,2090,2090,2114,1
243,2094,2092,2114,1
243,2096,2094,2117,1
243,2096,2095,2118,1
243,2097,2096,2120,1
243,2094,2096,2119,1
243,2094,2091,2115,1
243,2087,2088,2115,1
243,2087,2087,2114,1
243,2086,2088,2114,1
243,2089,2088,2115,1
243,2090,2089,2115,1
243,2090,2090,2115,1
243,2091,2090,2117,1
243,2091,2090,2116,1
243,2090,2089,2116,1
243,2091,2088,2115,1
243,2090,2089,2116,1
243,2092,2091,2118,1
243,2096,2093,2119,1
243,2096,2095,2120,1
243,2097,2095,2120,1
243,2094,2095,2117,1
243,2091,2091,2113,1
243,2088,2088,2112,1
243,2090,2087,2112,1
243,2089,2088,2114,1
243,2090,2088,2114,1
243,2090,2089,2115,1
243,2091,2090,2115,1
243,2092,2091,2115,1
243,2091,2091,2114,1
243,2090,2089,2114,1
243,2092,2088,2114,1
243,2092,2091,2116,1
243,2095,2093,2116,1
243,2096,2093,2120,1
243,2096,2094,2120,1
243,2096,2093,2122,1
243,2094,2093,2119,1
243,2090,2089,2112,1
243,2086,2089,2112,1
243,2086,2087,2113,1
243,2090,2089,2113,1
243,2091,2090,2113,1
243,2090,2090,2113,1
243,2091,2090,2115,1
243,2091,2091,2115,1
243,2091,2090,2115,1
243,2088,2089,2115,1
243,2090,2089,2116,1
243,2090,2091,2117,1
243,2093,2093,2120,1
243,2096,2095,2120,1
243,2096,2095,2120,1
243,2095,2095,2120,1
243,2095,2092,2117,1
243,2088,2089,2117,1
243,2087,2087,2114,1
243,2086,2087,2114,1
243,2089,2088,2115,1
243,2091,2089,2115,1
243,2090,2090,2116,1
243,2091,2091,2116,1
243,2091,2091,2116,1
243,2091,2090,2115,1
243,2090,2090,2115,1
243,2093,2090,2115,1
243,2093,2092,2117,1
243,2095,2092,2120,1
243,2095,2096,2121,1
243,2097,2096,2121,1
243,2095,2096,2120,1
243,2092,2093,2116,1
243,2090,2089,2114,1
243,2090,2087,2112,1
243,2089,2088,2115,1
243,2090,2089,2115,1
243,2090,2089,2115,1
243,2090,2090,2115,1
243,2091,2091,2117,1
243,2091,2091,2117,1
243,2090,2089,2114,1
243,2090,2091,2114,1
243,2090,2091,2118,1
243,2093,2092,2118,1
243,2095,2092,2121,1
243,2095,2095,2122,1
243,2096,2095,2123,1
243,2095,2095,2120,1
243,2092,2091,2114,1
243,2086,2088,2112,1
243,2087,2088,2112,1
243,2087,2089,2114,1
243,2090,2089,2114,1
243,2091,2089,2115,1
243,2090,2090,2115,1
243,2091,2090,2117,1
243,2091,2090,2116,1
243,2089,2089,2116,1
243,2090,2089,2115,1
243,2090,2091,2117,1
243,2093,2093,2119,1
243,2096,2095,2120,1
243,2096,2096,2121,1
243,2097,2096,2122,1
243,2093,2096,2118,1
243,2093,2088,2114,1
243,2088,2087,2114,1
243,2090,2087,2114,1
243,2090,2088,2114,1
243,2091,2088,2115,1
243,2093,2089,2115,1
243,2093,2091,2115,1
243,2092,2091,2116,1
243,2092,2091,2115,1
243,2090,2089,2115,1
243,2092,2089,2115,1
243,2092,2091,2117,1
243,2094,2095,2120,1
243,2095,2095,2123,1
243,2095,2096,2123,1
243,2096,2094,2123,1
243,2093,2093,2120,1
243,2089,2089,2116,1
243,2088,2088,2114,1
243,2091,2088,2114,1
243,2091,2090,2114,1
243,2091,2090,2115,1
243,2091,2090,2115,1
243,2093,2091,2115,1
243,2093,2092,2116,1
243,2091,2091,2114,1
243,2090,2090,2114,1
243,2093,2090,2115,1
243,2093,2093,2118,1
243,2096,2095,2118,1
243,2097,2095,2121,1
243,2097,2095,2121,1
243,2096,2092,2122,1
243,2093,2091,2118,1
243,2089,2088,2113,1
243,2088,2088,2113,1
243,2088,2089,2114,1
243,2091,2089,2114,1
243,2091,2089,2114,1
243,2090,2089,2114,1
243,2092,2090,2116,1
243,2091,2091,2116,1
243,2091,2090,2115,1
243,2089,2091,2115,1
243,2092,2091,2117,1
243,2093,2093,2118,1
243,2095,2095,2121,1
243,2098,2097,2121,1
243,2098,2097,2119,1
243,2093,2097,2119,1
243,2093,2091,2115,1
243,2087,2088,2115,1
243,2089,2088,2112,1
243,2089,2089,2114,1
243,2090,2089,2116,1
243,2092,2090,2116,1
243,2091,2091,2118,1
243,2092,2091,2118,1
243,2091,2091,2116,1
243,2091,2089,2115,1
243,2091,2090,2115,1
243,2094,2091,2117,1
243,2094,2093,2118,1
243,2096,2096,2121,1
243,2096,2096,2123,1
243,2097,2096,2123,1
243,2094,2096,2119,1
243,2091,2092,2115,1
243,2089,2089,2113,1
243,2091,2088,2113,1
243,2091,2090,2115,1
243,2091,2090,2115,1
243,2091,2090,2116,1
243,2091,2092,2117,1
243,2093,2092,2117,1
243,2092,2092,2116,1
243,2090,2090,2115,1
243,2091,2092,2116,1
243,2091,2092,2120,1
243,2095,2095,2120,1
243,2097,2095,2122,1
243,2097,2097,2122,1
243,2097,2095,2123,1
243,2094,2094,2120,1
243,2091,2090,2115,1
243,2088,2090,2114,1
243,2090,2090,2115,1
243,2090,2091,2116,1
243,2092,2091,2116,1
243,2093,2091,2116,1
243,2093,2092,2116,1
243,2093,2091,2118,1
243,2090,2091,2117,1
243,2090,2090,2117,1
243,2092,2090,2118,1
243,2092,2094,2119,1
243,2094,2096,2122,1
243,2097,2097,2122,1
243,2097,2097,2122,1
243,2097,2094,2123,1
243,2093,2094,2117,1
243,2093,2088,2115,1
243,2091,2088,2115,1
243,2093,2089,2116,1
243,2092,2090,2116,1
243,2092,2091,2117,1
243,2094,2092,2117,1
243,2094,2093,2117,1
243,2093,2093,2117,1
243,2093,2092,2115,1
243,2091,2092,2115,1
243,2094,2092,2116,1
243,2095,2094,2118,1
243,2098,2095,2121,1
243,2098,2097,2124,1
243,2098,2098,2123,1
243,2095,2095,2123,1
243,2092,2095,2115,1
243,2088,2092,2114,1
243,2089,2092,2114,1
243,2092,2093,2115,1
243,2092,2092,2115,1
243,2092,2092,2117,1
243,2092,2092,2118,1
243,2094,2092,2118,1
243,2094,2092,2118,1
243,2092,2091,2116,1
243,2093,2091,2116,1
243,2097,2092,2117,1
243,2097,2096,2120,1
243,2099,2097,2120,1
243,2100,2097,2122,1
243,2099,2097,2121,1
243,2096,2094,2121,1
243,2094,2091,2117,1
243,2090,2090,2114,1
243,2091,2090,2114,1
243,2091,2092,2116,1
243,2092,2092,2116,1
243,2093,2093,2116,1
243,2093,2093,2117,1
243,2094,2093,2119,1
243,2093,2093,2118,1
243,2093,2090,2118,1
243,2095,2092,2118,1
243,2097,2092,2121,1
243,2097,2095,2122,1
243,2098,2096,2124,1
243,2100,2097,2124,1
243,2099,2096,2120,1
243,2093,2096,2120,1
243,2093,2089,2118,1
243,2090,2089,2118,1
243,2092,2089,2117,1
243,2092,2091,2117,1
243,2093,2091,2119,1
243,2096,2092,2119,1
243,2095,2093,2120,1
243,2094,2093,2120,1
243,2093,2093,2118,1
243,2093,2091,2118,1
243,2094,2093,2119,1
243,2096,2095,2121,1
243,2097,2097,2121,1
243,2099,2099,2123,1
243,2099,2099,2124,1
243,2097,2097,2124,1
243,2094,2097,2119,1
243,2091,2093,2116,1
243,2091,2092,2116,1
243,2094,2092,2117,1
243,2094,2093,2118,1
243,2094,2093,2118,1
243,2095,2093,2119,1
243,2095,2094,2119,1
243,2095,2093,2120,1
243,2094,2093,2118,1
243,2092,2092,2118,1
243,2094,2096,2120,1
243,2094,2096,2123,1
243,2097,2098,2123,1
243,2099,2098,2125,1
243,2099,2099,2124,1
243,2098,2096,2124,1
243,2095,2094,2120,1
243,2091,2091,2117,1
243,2090,2092,2117,1
243,2092,2092,2119,1
243,2092,2093,2119,1
243,2094,2093,2119,1
243,2094,2096,2119,2
243,2094,2096,2119,2
243,2094,2096,2119,2
243,2094,2094,2119,2
243,2094,2096,2119,2
243,2094,2098,2119,2
243,2094,2101,2119,2
243,2094,2101,2119,2
243,2094,2101,2119,2
243,2094,2101,2120,2
243,2094,2098,2121,2
243,2093,2095,2118,2
243,2091,2093,2116,2
243,2092,2094,2117,2
243,2092,2094,2120,2
243,2094,2094,2120,2
243,2091,2094,2117,2
243,2091,2089,2115,2
243,2089,2087,2115,2
243,2088,2086,2112,2
243,2085,2084,2109,2
243,2085,2085,2109,2
243,2086,2085,2111,2
243,2086,2088,2113,2
243,2090,2089,2113,2
243,2090,2090,2114,2
243,2089,2089,2111,2
243,2086,2084,2111,2
243,2082,2081,2108,2
243,2082,2080,2108,2
243,2083,2080,2108,2
243,2083,2083,2108,2
243,2084,2083,2108,2
243,2085,2083,2108,2
243,2084,2084,2108,2
243,2084,2083,2109,2
243,2082,2083,2108,2
243,2082,2082,2109,2
243,2085,2084,2109,2
243,2087,2084,2112,2
243,2087,2086,2113,2
243,2090,2087,2115,2
243,2089,2089,2115,2
243,2089,2086,2115,2
243,2085,2086,2111,2
243,2085,2080,2108,2
243,2082,2081,2108,2
243,2084,2082,2109,2
243,2083,2083,2109,2
243,2084,2083,2110,2
243,2086,2083,2110,2
243,2086,2085,2110,2
243,2085,2084,2110,2
243,2084,2084,2107,2
243,2082,2084,2108,2
243,2089,2089,2112,2
243,2096,2093,2116,2
243,2098,2096,2123,2
243,2101,2096,2123,2
243,2101,2100,2124,2
243,2100,2098,2124,2
243,2097,2097,2121,2
243,2094,2095,2119,2
243,2095,2095,2119,2
243,2098,2096,2120,2
243,2098,2096,2121,2
243,2098,2097,2121,2
243,2099,2097,2123,2
243,2099,2097,2123,2
243,2098,2096,2123,2
243,2098,2096,2121,2
243,2096,2098,2121,2
243,2098,2098,2125,2
243,2098,2102,2126,2
243,2102,2103,2126,2
243,2103,2104,2127,2
243,2103,2104,2126,2
243,2101,2100,2126,2
243,2097,2097,2120,2
243,2097,2094,2119,2
243,2098,2096,2119,2
243,2099,2096,2121,2
243,2098,2096,2121,2
243,2099,2097,2123,2
243,2100,2098,2124,2
243,2100,2098,2124,2
243,2099,2098,2123,2
243,2099,2096,2122,2
243,2100,2097,2123,2
243,2103,2099,2125,2
243,2103,2101,2126,2
243,2105,2104,2128,2
243,2105,2104,2130,2
243,2105,2103,2128,2
243,2099,2099,2128,2
243,2097,2097,2124,2
243,2094,2096,2123,2
243,2096,2097,2124,2
243,2096,2098,2125,2
243,2097,2098,2125,2
243,2098,2098,2125,2
243,2098,2100,2125,2
243,2098,2099,2126,2
243,2098,2099,2125,2
243,2096,2098,2123,2
243,2099,2101,2124,2
243,2101,2101,2128,2
243,2101,2104,2130,2
243,2105,2105,2130,2
243,2105,2105,2130,2
243,2103,2103,2127,2
243,2100,2097,2126,2
243,2100,2097,2122,2
243,2097,2097,2122,2
243,2098,2097,2124,2
243,2098,2099,2124,2
243,2099,2099,2125,2
243,2101,2100,2125,2
243,2101,2100,2125,2
243,2099,2099,2125,2
243,2098,2099,2123,2
243,2098,2099,2124,2
243,2101,2101,2126,2
243,2104,2103,2128,2
243,2105,2104,2128,2
243,2107,2105,2131,2
243,2107,2105,2130,2
243,2104,2102,2130,2
243,2101,2102,2124,2
243,2098,2099,2122,2
243,2098,2099,2122,2
243,2101,2100,2124,2
243,2101,2100,2125,2
243,2101,2100,2125,2
243,2102,2100,2126,2
243,2102,2100,2125,2
243,2102,2100,2126,2
243,2102,2100,2123,2
243,2101,2100,2126,2
243,2104,2100,2126,2
243,2104,2105,2129,2
243,2107,2106,2129,2
243,2108,2107,2130,2
243,2107,2107,2129,2
243,2104,2103,2129,2
243,2099,2101,2125,2
243,2099,2098,2124,2
243,2102,2100,2124,2
243,2102,2100,2125,2
243,2101,2100,2125,2
243,2102,2100,2126,2
243,2103,2101,2127,2
243,2103,2101,2127,2
243,2102,2101,2126,2
243,2102,2099,2125,2
243,2102,2101,2126,2
243,2105,2103,2128,2
243,2105,2105,2129,2
243,2107,2107,2132,2
243,2107,2107,2134,2
243,2107,2106,2131,2
243,2102,2102,2131,2
243,2101,2099,2127,2
243,2099,2098,2126,2
243,2101,2100,2127,2
243,2101,2101,2127,2
243,2102,2101,2127,2
243,2103,2101,2127,2
243,2103,2101,2127,2
243,2103,2101,2128,2
243,2102,2101,2126,2
243,2100,2100,2126,2
243,2102,2104,2128,2
243,2105,2104,2132,2
243,2105,2107,2133,2
243,2109,2108,2133,2
243,2109,2108,2133,2
243,2107,2106,2129,2
243,2104,2100,2128,2
243,2104,2100,2124,2
243,2102,2100,2124,2
243,2103,2100,2126,2
243,2103,2101,2126,2
243,2103,2101,2127,2
243,2105,2102,2127,2
243,2105,2103,2127,2
243,2103,2102,2127,2
243,2102,2102,2125,2
243,2102,2103,2127,2
243,2104,2105,2129,2
243,2107,2107,2131,2
243,2108,2108,2132,2
243,2110,2108,2134,2
243,2110,2108,2133,2
243,2107,2105,2133,2
243,2104,2105,2126,2
243,2101,2102,2125,2
243,2101,2102,2125,2
243,2104,2103,2126,2
243,2103,2103,2126,2
243,2103,2103,2126,2
243,2104,2103,2128,2
243,2104,2103,2128,2
243,2104,2102,2129,2
243,2105,2102,2127,2
243,2104,2103,2130,2
243,2107,2103,2130,2
243,2107,2107,2132,2
243,2110,2109,2132,2
243,2111,2109,2134,2
243,2110,2108,2132,2
243,2109,2104,2132,2
243,2103,2102,2128,2
243,2103,2099,2128,2
243,2104,2101,2128,2
243,2104,2101,2130,2
243,2103,2101,2130,2
243,2105,2102,2131,2
243,2107,2104,2131,2
243,2106,2104,2131,2
243,2105,2104,2129,2
243,2105,2101,2129,2
243,2107,2103,2129,2
243,2109,2105,2132,2
243,2109,2107,2133,2
243,2111,2108,2136,2
243,2111,2110,2137,2
243,2111,2108,2134,2
243,2105,2105,2134,2
243,2104,2105,2126,2
243,2101,2103,2126,2
243,2104,2104,2128,2
243,2105,2104,2128,2
243,2105,2105,2128,2
243,2105,2105,2130,2
243,2105,2106,2130,2
243,2105,2105,2131,2
243,2105,2105,2130,2
243,2103,2104,2129,2
243,2106,2108,2131,2
243,2109,2108,2135,2
243,2109,2110,2136,2
243,2112,2111,2136,2
243,2112,2111,2136,2
243,2110,2108,2133,2
243,2106,2104,2131,2
243,2106,2102,2128,2
243,2103,2103,2128,2
243,2104,2103,2130,2
243,2104,2104,2130,2
243,2105,2104,2131,2
243,2107,2105,2131,2
243,2107,2105,2130,2
243,2107,2103,2131,2
243,2106,2103,2129,2
243,2106,2104,2131,2
243,2110,2107,2131,2
243,2112,2109,2133,2
243,2112,2110,2134,2
243,2113,2111,2136,2
243,2113,2111,2135,2
243,2109,2108,2135,2
243,2106,2108,2129,2
243,2103,2105,2127,2
243,2104,2105,2127,2
243,2106,2106,2129,2
243,2106,2105,2130,2
243,2106,2106,2130,2
243,2107,2106,2132,2
243,2107,2106,2131,2
243,2106,2105,2131,2
243,2107,2104,2130,2
243,2106,2105,2131,2
243,2109,2109,2134,2
243,2109,2109,2138,2
243,2112,2111,2138,2
243,2113,2111,2139,2
243,2112,2111,2136,2
243,2110,2107,2136,2
243,2108,2104,2131,2
243,2105,2102,2128,2
243,2107,2103,2128,2
243,2107,2103,2130,2
243,2107,2104,2130,2
243,2108,2105,2131,2
243,2109,2106,2131,2
243,2108,2106,2130,2
243,2105,2106,2130,2
243,2105,2104,2130,2
243,2108,2106,2130,2
243,2111,2108,2133,2
243,2111,2110,2135,2
243,2114,2111,2138,2
243,2114,2112,2138,2
243,2114,2110,2136,2
243,2107,2106,2136,2
243,2105,2106,2130,2
243,2103,2105,2130,2
243,2105,2106,2132,2
243,2107,2107,2132,2
243,2106,2107,2131,2
243,2108,2107,2131,2
243,2108,2108,2132,2
243,2108,2107,2132,2
243,2107,2107,2131,2
243,2105,2106,2131,2
243,2108,2108,2133,2
243,2113,2110,2135,2
243,2113,2113,2137,2
243,2114,2113,2137,2
243,2113,2113,2138,2
243,2111,2110,2135,2
243,2108,2106,2133,2
243,2106,2104,2130,2
243,2106,2105,2130,2
243,2107,2105,2132,2
243,2107,2106,2132,2
243,2109,2106,2132,2
243,2110,2107,2133,2
243,2109,2107,2132,2
243,2109,2106,2133,2
243,2108,2106,2131,2
243,2108,2107,2133,2
243,2112,2109,2133,2
243,2115,2111,2135,2
243,2115,2112,2136,2
243,2116,2112,2139,2
243,2116,2113,2138,2
243,2111,2110,2138,2
243,2108,2110,2131,2
243,2108,2105,2130,2
243,2108,2106,2131,2
243,2109,2107,2132,2
243,2108,2107,2132,2
243,2109,2108,2133,2
243,2109,2108,2135,2
243,2109,2108,2135,2
243,2108,2107,2135,2
243,2109,2106,2133,2
243,2108,2108,2134,2
243,2110,2112,2137,2
243,2110,2112,2140,2
243,2114,2113,2140,2
243,2115,2113,2141,2
243,2115,2113,2139,2
243,2112,2109,2138,2
243,2110,2106,2134,2
243,2107,2105,2132,2
243,2108,2107,2132,2
243,2108,2107,2134,2
243,2108,2107,2134,2
243,2110,2108,2134,2
243,2111,2109,2134,2
243,2110,2108,2132,2
243,2109,2106,2132,2
243,2109,2106,2133,2
243,2110,2109,2133,2
243,2113,2109,2138,2
243,2113,2112,2139,2
243,2115,2113,2141,2
243,2117,2115,2141,2
243,2115,2113,2136,2
243,2108,2109,2136,2
243,2107,2109,2131,2
243,2107,2108,2131,2
243,2109,2108,2133,2
243,2110,2109,2133,2
243,2109,2109,2133,2
243,2111,2110,2134,2
243,2111,2110,2135,2
243,2110,2109,2135,2
243,2109,2109,2133,2
243,2107,2109,2134,2
243,2110,2111,2136,2
243,2114,2113,2138,2
243,2115,2115,2140,2
243,2117,2115,2140,2
243,2116,2115,2140,2
243,2116,2111,2137,2
243,2112,2108,2135,2
243,2111,2106,2133,2
243,2109,2107,2135,2
243,2110,2107,2135,2
243,2110,2109,2135,2
243,2110,2110,2135,2
243,2111,2111,2136,2
243,2110,2111,2135,2
243,2110,2109,2136,2
243,2109,2109,2134,2
243,2109,2110,2136,2
243,2113,2112,2136,2
243,2115,2112,2140,2
243,2115,2114,2140,2
243,2117,2114,2142,2
243,2117,2115,2141,2
243,2114,2110,2141,2
243,2110,2110,2134,2
243,2110,2106,2133,2
243,2110,2108,2133,2
243,2111,2109,2134,2
243,2110,2109,2134,2
243,2110,2109,2135,2
243,2110,2110,2137,2
243,2110,2110,2136,2
243,2109,2109,2136,2
243,2110,2109,2135,2
243,2110,2110,2136,2
243,2114,2112,2139,2
243,2118,2115,2140,2
243,2118,2117,2140,2
243,2118,2117,2142,2
243,2118,2116,2140,2
243,2115,2112,2140,2
243,2112,2109,2136,2
243,2109,2108,2134,2
243,2110,2110,2134,2
243,2110,2110,2136,2
243,2110,2110,2136,2
243,2112,2111,2136,2
243,2112,2112,2137,2
243,2111,2111,2135,2
243,2111,2110,2135,2
243,2111,2109,2136,2
243,2113,2112,2136,2
243,2115,2112,2140,2
243,2115,2116,2142,2
243,2117,2116,2144,2
243,2118,2117,2144,2
243,2116,2115,2140,2
243,2109,2111,2138,2
243,2108,2111,2133,2
243,2108,2109,2134,2
243,2111,2110,2134,2
243,2112,2110,2134,2
243,2111,2110,2134,2
243,2112,2111,2136,2
243,2112,2111,2137,2
243,2112,2110,2137,2
243,2111,2110,2135,2
243,2109,2110,2136,2
243,2112,2112,2138,2
243,2116,2114,2140,2
243,2116,2116,2143,2
243,2118,2116,2143,2
243,2117,2116,2144,2
243,2117,2112,2140,2
243,2113,2109,2138,2
243,2112,2107,2135,2
243,2110,2108,2137,2
243,2111,2108,2137,2
243,2111,2109,2137,2
243,2111,2110,2137,2
243,2113,2110,2138,2
243,2113,2111,2137,2
243,2113,2110,2138,2
243,2112,2110,2136,2
243,2112,2112,2138,2
243,2115,2115,2138,2
243,2117,2115,2142,2
243,2117,2117,2143,2
243,2119,2117,2146,2
243,2118,2117,2144,2
243,2115,2113,2136,2
243,2108,2113,2136,2
243,2108,2109,2135,2
243,2110,2110,2135,2
243,2111,2111,2136,2
243,2111,2111,2135,2
243,2112,2111,2136,2
243,2112,2112,2138,2
243,2112,2112,2138,2
243,2112,2111,2138,2
243,2113,2110,2138,2
243,2113,2112,2139,2
243,2116,2114,2142,2
243,2120,2116,2143,2
243,2120,2118,2143,2
243,2120,2118,2145,2
243,2120,2116,2142,2
243,2117,2113,2141,2
243,2114,2110,2137,2
243,2111,2109,2135,2
243,2112,2111,2136,2
243,2112,2111,2137,2
243,2112,2111,2137,2
243,2114,2112,2137,2
243,2114,2113,2137,2
243,2113,2112,2136,2
243,2112,2110,2137,2
243,2112,2110,2138,2
243,2115,2112,2138,2
243,2117,2112,2142,2
243,2117,2117,2143,2
243,2119,2118,2145,2
243,2120,2118,2144,2
243,2118,2116,2139,2
243,2111,2112,2139,2
243,2110,2112,2134,2
243,2110,2111,2135,2
243,2112,2111,2137,2
243,2113,2112,2136,2
243,2112,2112,2136,2
243,2113,2112,2138,2
243,2113,2113,2138,2
243,2113,2112,2138,2
243,2112,2112,2136,2
243,2110,2112,2137,2
243,2114,2114,2140,2
243,2118,2117,2142,2
243,2119,2119,2144,2
243,2120,2119,2144,2
243,2118,2119,2144,2
243,2115,2116,2140,2
243,2112,2113,2138,2
243,2112,2111,2135,2
243,2111,2111,2137,2
243,2112,2111,2137,2
243,2112,2111,2137,2
243,2113,2111,2137,2
243,2115,2112,2138,2
243,2115,2112,2137,2
243,2115,2111,2138,2
243,2113,2110,2136,2
243,2113,2112,2139,2
243,2117,2115,2139,2
243,2119,2115,2143,2
243,2119,2117,2144,2
243,2121,2117,2145,2
243,2120,2117,2144,2
243,2117,2112,2144,2
243,2113,2112,2137,2
243,2113,2109,2136,2
243,2114,2111,2136,2
243,2115,2112,2137,2
243,2114,2112,2136,2
243,2115,2112,2138,2
243,2115,2113,2140,2
243,2115,2113,2140,2
243,2113,2112,2140,2
243,2114,2111,2139,2
243,2114,2113,2140,2
243,2117,2115,2143,2
243,2121,2117,2144,2
243,2121,2119,2144,2
243,2121,2119,2146,2
243,2121,2118,2143,2
243,2115,2114,2143,2
243,2113,2111,2139,2
243,2111,2110,2137,2
243,2112,2112,2138,2
243,2112,2112,2138,2
243,2112,2112,2138,2
243,2115,2113,2138,2
243,2115,2114,2139,2
243,2114,2113,2138,2
243,2113,2112,2138,2
243,2117,2112,2138,2
243,2117,2116,2138,2
243,2119,2116,2143,2
243,2119,2120,2145,2
243,2120,2120,2147,2
243,2121,2121,2146,2
243,2119,2118,2141,2
243,2116,2111,2140,2
243,2113,2111,2136,2
243,2113,2111,2137,2
243,2116,2112,2137,2
243,2116,2113,2138,2
243,2115,2113,2138,2
243,2116,2115,2140,2
243,2116,2115,2141,2
243,2115,2114,2141,2
243,2114,2114,2138,2
243,2114,2114,2139,2
243,2116,2115,2142,2
243,2120,2117,2144,2
243,2120,2119,2144,2
243,2122,2120,2146,2
243,2120,2120,2145,2
243,2120,2115,2141,2
243,2116,2112,2139,2
243,2116,2111,2137,2
243,2114,2111,2137,2
243,2115,2112,2139,2
243,2115,2112,2140,2
243,2115,2113,2140,2
243,2116,2113,2142,2
243,2115,2113,2141,2
243,2115,2112,2141,2
243,2116,2112,2138,2
243,2115,2113,2141,2
243,2118,2116,2141,2
243,2120,2116,2146,2
243,2120,2120,2147,2
243,2121,2120,2149,2
243,2120,2120,2146,2
243,2117,2117,2140,2
243,2111,2117,2138,2
243,2111,2112,2138,2
243,2113,2113,2138,2
243,2114,2113,2140,2
243,2113,2113,2139,2
243,2115,2114,2140,2
243,2117,2115,2140,2
243,2116,2115,2140,2
243,2114,2114,2140,2
243,2115,2114,2139,2
243,2115,2117,2141,2
243,2118,2119,2144,2
243,2122,2121,2145,2
243,2122,2122,2147,2
243,2122,2122,2147,2
243,2122,2119,2145,2
243,2116,2115,2145,2
243,2114,2112,2141,2
243,2111,2111,2140,2
243,2113,2112,2140,2
243,2115,2113,2140,2
243,2115,2114,2140,2
243,2116,2115,2140,2
243,2116,2115,2141,2
243,2115,2115,2139,2
243,2114,2114,2140,2
243,2117,2114,2140,2
243,2117,2118,2140,2
243,2120,2118,2145,2
243,2120,2122,2147,2
243,2124,2122,2147,2
243,2124,2122,2147,2
243,2121,2120,2143,2
243,2117,2112,2142,2
243,2115,2112,2138,2
243,2115,2112,2139,2
243,2117,2113,2139,2
243,2117,2114,2139,2
243,2115,2115,2139,2
243,2117,2116,2141,2
243,2116,2116,2141,2
243,2116,2114,2141,2
243,2115,2114,2139,2
243,2115,2115,2140,2
243,2117,2118,2143,2
243,2121,2120,2145,2
243,2121,2122,2146,2
243,2123,2123,2148,2
243,2121,2123,2148,2
243,2121,2117,2144,2
243,2115,2114,2144,2
243,2115,2112,2141,2
243,2114,2113,2141,2
243,2115,2113,2142,2
243,2115,2114,2142,2
243,2116,2115,2142,2
243,2117,2115,2144,2
243,2117,2116,2143,2
243,2117,2114,2143,2
243,2117,2114,2141,2
243,2116,2115,2141,2
243,2120,2118,2144,2
243,2122,2118,2148,2
243,2122,2122,2149,2
243,2123,2122,2150,2
243,2121,2122,2148,2
243,2117,2118,2142,2
243,2115,2114,2139,2
243,2115,2114,2138,2
243,2116,2115,2138,2
243,2116,2115,2140,2
243,2115,2115,2140,2
243,2116,2116,2141,2
243,2118,2117,2141,2
243,2117,2117,2140,2
243,2115,2115,2140,2
243,2116,2115,2140,2
243,2116,2118,2142,2
243,2119,2120,2145,2
243,2122,2122,2146,2
243,2122,2123,2148,2
243,2123,2123,2148,2
243,2123,2120,2145,2
243,2117,2116,2145,2
243,2115,2116,2138,2
243,2112,2114,2138,2
243,2114,2115,2140,2
243,2116,2116,2140,2
243,2116,2116,2141,2
243,2117,2116,2141,2
243,2117,2116,2142,2
243,2116,2116,2141,2
243,2116,2115,2141,2
243,2119,2115,2141,2
243,2119,2119,2141,2
243,2121,2119,2146,2
243,2121,2123,2148,2
243,2125,2123,2148,2
243,2124,2123,2148,2
243,2122,2120,2144,2
243,2118,2113,2142,2
243,2116,2113,2138,2
243,2116,2113,2139,2
243,2118,2114,2139,2
243,2118,2115,2140,2
243,2117,2115,2140,2
243,2118,2116,2142,2
243,2118,2116,2142,2
243,2118,2115,2142,2
243,2117,2115,2140,2
243,2117,2116,2142,2
243,2120,2119,2145,2
243,2123,2121,2146,2
243,2123,2122,2147,2
243,2125,2123,2149,2
243,2122,2123,2147,2
243,2122,2118,2143,2
243,2115,2115,2143,2
243,2115,2113,2140,2
243,2114,2113,2140,2
243,2116,2114,2142,2
243,2116,2114,2142,2
243,2117,2115,2142,2
243,2118,2115,2144,2
243,2117,2115,2143,2
243,2117,2114,2143,2
243,2118,2113,2141,2
243,2117,2115,2144,2
243,2121,2118,2144,2
243,2123,2118,2148,2
243,2123,2122,2149,2
243,2124,2122,2150,2
243,2122,2122,2147,2
243,2119,2118,2139,2
243,2113,2118,2139,2
243,2113,2114,2139,2
243,2116,2115,2139,2
243,2117,2115,2141,2
243,2116,2115,2140,2
243,2118,2116,2141,2
243,2120,2117,2142,2
243,2119,2116,2142,2
243,2116,2115,2142,2
243,2117,2115,2141,2
243,2117,2117,2143,2
243,2120,2119,2146,2
243,2123,2121,2147,2
243,2123,2122,2149,2
243,2123,2122,2149,2
243,2123,2120,2146,2
243,2118,2116,2146,2
243,2116,2113,2143,2
243,2113,2113,2142,2
243,2115,2114,2143,2
243,2115,2115,2144,2
243,2115,2115,2143,2
243,2118,2116,2143,2
243,2118,2116,2143,2
243,2117,2116,2141,2
243,2117,2115,2141,2
243,2120,2115,2142,2
243,2120,2119,2142,2
243,2122,2119,2147,2
243,2122,2123,2148,2
243,2124,2123,2150,2
243,2124,2124,2149,2
243,2122,2121,2144,2
243,2119,2114,2143,2
243,2117,2114,2140,2
243,2117,2115,2141,2
243,2117,2115,2143,2
243,2118,2116,2143,2
243,2117,2116,2142,2
243,2119,2117,2144,2
243,2119,2117,2143,2
243,2117,2116,2143,2
243,2117,2116,2140,2
243,2116,2116,2141,2
243,2119,2119,2144,2
243,2122,2121,2146,2
243,2123,2122,2149,2
243,2125,2122,2149,2
243,2122,2122,2147,2
243,2122,2117,2143,2
243,2119,2114,2140,2
243,2119,2113,2138,2
243,2117,2114,2141,2
243,2117,2114,2141,2
243,2117,2115,2141,2
243,2117,2116,2141,2
243,2118,2116,2142,2
243,2118,2116,2141,2
243,2118,2114,2142,2
243,2119,2114,2141,2
243,2119,2118,2144,2
243,2122,2121,2144,2
243,2124,2121,2148,2
243,2124,2123,2148,2
243,2125,2123,2150,2
243,2123,2123,2147,2
243,2120,2119,2139,2
243,2114,2119,2139,2
243,2114,2114,2139,2
243,2116,2115,2139,2
243,2117,2116,2140,2
243,2116,2116,2140,2
243,2117,2116,2142,2
243,2117,2117,2144,2
243,2117,2116,2143,2
243,2116,2115,2143,2
243,2118,2115,2142,2
243,2118,2117,2144,2
243,2121,2120,2147,2
243,2125,2122,2148,2
243,2125,2124,2148,2
243,2125,2124,2149,2
243,2125,2120,2146,2
243,2120,2116,2144,2
243,2118,2113,2141,2
243,2115,2113,2140,2
243,2117,2115,2141,2
243,2116,2115,2142,2
243,2116,2116,2142,2
243,2119,2117,2142,2
243,2119,2118,2142,2
243,2118,2117,2140,2
243,2117,2115,2140,2
243,2117,2115,2143,2
243,2120,2118,2143,2
243,2123,2118,2147,2
243,2123,2121,2148,2
243,2125,2122,2150,2
243,2125,2123,2150,2
243,2123,2120,2142,2
243,2115,2117,2142,2
243,2115,2117,2139,2
243,2115,2116,2140,2
243,2116,2116,2142,2
243,2117,2116,2142,2
243,2116,2116,2144,2
243,2118,2116,2144,2
243,2118,2116,2144,2
243,2117,2115,2144,2
243,2117,2115,2141,2
243,2116,2116,2142,2
243,2120,2119,2145,2
243,2124,2121,2147,2
243,2124,2124,2148,2
243,2126,2124,2148,2
243,2123,2124,2146,2
243,2119,2120,2142,2
243,2117,2117,2139,2
243,2117,2115,2138,2
243,2116,2115,2140,2
243,2116,2115,2140,2
243,2116,2115,2140,2
243,2118,2116,2140,2
243,2119,2117,2141,2
243,2118,2117,2141,2
243,2117,2115,2142,2
243,2117,2114,2142,2
243,2117,2118,2144,2
243,2122,2120,2144,2
243,2124,2122,2147,2
243,2124,2123,2148,2
243,2126,2122,2150,2
243,2120,2122,2147,2
243,2120,2115,2147,2
243,2117,2115,2140,2
243,2117,2113,2140,2
243,2117,2114,2141,2
243,2118,2115,2141,2
243,2117,2115,2140,2
243,2118,2117,2142,2
243,2118,2117,2144,2
243,2118,2116,2143,2
243,2117,2115,2143,2
243,2119,2114,2143,2
243,2119,2116,2144,2
243,2122,2122,2147,2
243,2122,2122,2150,2
243,2125,2122,2150,2
243,2125,2122,2150,2
243,2122,2120,2146,2
243,2119,2116,2144,2
243,2118,2114,2141,2
243,2116,2114,2141,2
243,2118,2115,2141,2
243,2118,2115,2141,2
243,2118,2115,2141,2
243,2119,2116,2143,2
243,2120,2117,2143,2
243,2118,2116,2141,2
243,2115,2116,2141,2
243,2115,2117,2143,2
243,2119,2119,2143,2
243,2122,2121,2146,2
243,2123,2122,2147,2
243,2125,2122,2149,2
243,2123,2123,2148,2
243,2123,2118,2144,2
243,2116,2115,2144,2
243,2116,2115,2140,2
243,2114,2115,2140,2
243,2116,2115,2142,2
243,2117,2115,2141,2
243,2117,2116,2141,2
243,2118,2116,2143,2
243,2118,2116,2142,2
243,2118,2115,2142,2
243,2118,2115,2140,2
243,2117,2116,2141,2
243,2120,2120,2144,2
243,2122,2120,2149,2
243,2122,2124,2149,2
243,2123,2123,2151,2
243,2121,2123,2149,2
243,2118,2119,2143,2
243,2116,2114,2140,2
243,2116,2114,2138,2
243,2116,2115,2138,2
243,2116,2115,2141,2
243,2116,2115,2141,2
243,2117,2115,2142,2
243,2119,2116,2142,2
243,2118,2116,2141,2
243,2116,2114,2141,2
243,2117,2114,2140,2
243,2117,2118,2142,2
243,2120,2120,2145,2
243,2123,2122,2147,2
243,2123,2123,2149,2
243,2123,2123,2149,2
243,2123,2120,2146,2
243,2117,2116,2146,2
243,2115,2113,2142,2
243,2113,2113,2141,2
243,2115,2114,2141,2
243,2117,2115,2141,2
243,2117,2115,2142,2
243,2118,2116,2142,2
243,2118,2116,2142,2
243,2117,2115,2141,2
243,2116,2114,2141,2
243,2119,2114,2141,2
243,2119,2119,2141,2
243,2121,2119,2146,2
243,2121,2123,2147,2
243,2124,2124,2147,2
243,2124,2125,2147,2
243,2122,2122,2143,2
243,2118,2114,2142,2
243,2116,2114,2139,2
243,2116,2114,2141,2
243,2118,2114,2141,2
243,2118,2114,2141,2
243,2115,2111,2137,2
243,2112,2108,2135,2
243,2107,2107,2132,2
243,2107,2103,2132,2
243,2105,2103,2127,2
243,2105,2103,2128,2
243,2106,2105,2130,2
243,2109,2107,2131,2
243,2109,2108,2132,2
243,2110,2109,2135,2
243,2108,2109,2134,2
243,2108,2103,2130,2
243,2102,2101,2130,2
243,2102,2099,2127,2
243,2101,2100,2127,2
243,2102,2100,2128,2
243,2102,2101,2128,2
243,2102,2102,2128,2
243,2103,2102,2129,2
243,2103,2102,2128,2
243,2103,2101,2129,2
243,2104,2101,2127,2
243,2103,2103,2128,2
243,2107,2106,2131,2
243,2109,2106,2135,2
243,2109,2110,2136,2
243,2111,2110,2136,2
243,2109,2109,2134,2
243,2106,2105,2128,2
243,2103,2101,2126,2
243,2103,2101,2125,2
243,2103,2101,2125,2
243,2104,2101,2127,2
243,2103,2101,2127,2
243,2104,2102,2128,2
243,2105,2103,2128,2
243,2104,2103,2127,2
243,2102,2102,2127,2
243,2104,2102,2126,2
243,2104,2104,2128,2
243,2107,2106,2131,2
243,2110,2108,2133,2
243,2110,2109,2133,2
243,2111,2107,2135,2
243,2111,2107,2131,2
243,2104,2103,2131,2
243,2102,2103,2125,2
243,2099,2102,2125,2
243,2101,2102,2127,2
243,2104,2103,2127,2
243,2103,2103,2127,2
243,2104,2104,2127,2
243,2104,2104,2129,2
243,2104,2102,2128,2
243,2103,2101,2128,2
243,2106,2101,2129,2
243,2106,2103,2133,2
243,2109,2103,2133,2
243,2109,2108,2135,2
243,2112,2109,2135,2
243,2111,2109,2134,2
243,2108,2106,2130,2
243,2105,2102,2128,2
243,2102,2100,2125,2
243,2102,2100,2126,2
243,2104,2101,2126,2
243,2104,2101,2127,2
243,2103,2101,2127,2
243,2103,2101,2128,2
243,2103,2101,2127,2
243,2101,2100,2123,2
243,2099,2100,2123,2
243,2099,2099,2124,2
243,2102,2101,2124,2
243,2104,2102,2126,2
243,2103,2103,2126,2
243,2104,2102,2127,2
243,2101,2102,2126,2
243,2101,2097,2123,2
243,2096,2096,2123,2
243,2096,2096,2120,2
243,2095,2097,2121,2
243,2097,2097,2123,2
243,2099,2097,2123,2
243,2099,2098,2123,2
243,2099,2098,2125,2
243,2099,2098,2124,2
243,2098,2097,2124,2
243,2099,2097,2123,2
243,2098,2098,2123,2
243,2101,2099,2125,2
243,2104,2101,2125,2
243,2104,2103,2126,2
243,2104,2102,2126,2
243,2101,2102,2123,2
243,2097,2098,2119,2
243,2095,2095,2118,2
243,2096,2094,2118,2
243,2096,2097,2118,2
243,2096,2097,2121,2
243,2096,2097,2121,2
243,2098,2098,2121,2
243,2099,2099,2122,2
243,2098,2098,2121,2
243,2098,2097,2121,2
243,2099,2096,2122,2
243,2099,2099,2125,2
243,2103,2101,2125,2
243,2104,2101,2127,2
243,2104,2102,2127,2
243,2105,2101,2129,2
243,2098,2100,2126,2
243,2098,2093,2126,2
243,2095,2093,2119,2
243,2095,2093,2119,2
243,2098,2095,2119,2
243,2098,2096,2120,2
243,2097,2096,2120,2
243,2098,2097,2121,2
243,2098,2098,2123,2
243,2098,2097,2122,2
243,2096,2096,2122,2
243,2098,2096,2123,2
243,2099,2098,2125,2
243,2102,2100,2128,2
243,2105,2102,2129,2
243,2105,2103,2129,2
243,2103,2103,2129,2
243,2103,2098,2125,2
243,2097,2095,2125,2
243,2096,2093,2122,2
243,2094,2093,2122,2
243,2096,2094,2123,2
243,2096,2095,2123,2
243,2096,2096,2123,2
243,2099,2097,2123,2
243,2098,2097,2122,2
243,2096,2096,2120,2
243,2096,2096,2120,2
243,2100,2096,2121,2
243,2100,2099,2126,2
243,2103,2099,2126,2
243,2103,2103,2128,2
243,2106,2103,2128,2
243,2104,2104,2128,2
243,2101,2100,2123,2
243,2098,2097,2121,2
243,2098,2096,2119,2
243,2098,2097,2121,2
243,2099,2097,2121,2
243,2099,2097,2121,2
243,2098,2098,2121,2
243,2100,2098,2123,2
243,2100,2098,2122,2
243,2098,2097,2120,2
243,2097,2097,2120,2
243,2097,2098,2122,2
243,2101,2099,2122,2
243,2102,2100,2124,2
243,2101,2100,2125,2
243,2102,2100,2126,2
243,2099,2100,2124,2
243,2099,2095,2121,2
243,2095,2095,2121,2
243,2096,2095,2120,2
243,2096,2096,2121,2
243,2097,2096,2123,2
243,2099,2097,2122,2
243,2098,2098,2124,2
243,2098,2098,2124,2
243,2098,2098,2123,2
243,2097,2097,2123,2
243,2098,2096,2122,2
243,2098,2097,2123,2
243,2100,2098,2125,2
243,2102,2099,2125,2
243,2102,2101,2125,2
243,2101,2099,2125,2
243,2098,2099,2122,2
243,2095,2096,2120,2
243,2095,2095,2120,2
243,2098,2095,2120,2
243,2098,2096,2121,2
243,2098,2096,2121,2
243,2098,2097,2122,2
243,2100,2097,2122,2
243,2100,2098,2122,2
243,2098,2098,2121,2
243,2098,2097,2121,2
243,2101,2097,2121,2
243,2101,2099,2123,2
243,2102,2099,2123,2
243,2102,2099,2125,2
243,2101,2099,2125,2
243,2100,2098,2126,2
243,2099,2097,2123,2
243,2096,2094,2123,2
243,2095,2094,2120,2
243,2095,2095,2121,2
243,2098,2096,2121,2
243,2098,2097,2121,2
243,2097,2097,2121,2
243,2098,2097,2123,2
243,2098,2097,2122,2
243,2098,2096,2121,2
243,2096,2096,2121,2
243,2098,2096,2123,2
243,2098,2098,2124,2
243,2100,2099,2126,2
243,2102,2100,2126,2
243,2101,2100,2125,2
243,2098,2100,2125,2
243,2098,2096,2122,2
243,2094,2094,2122,2
243,2095,2093,2121,2
243,2094,2094,2121,2
243,2096,2094,2123,2
243,2098,2095,2122,2
243,2098,2097,2122,2
243,2099,2097,2122,2
243,2099,2097,2122,2
243,2097,2097,2120,2
243,2098,2097,2120,2
243,2101,2098,2122,2
243,2100,2099,2125,2
243,2102,2099,2125,2
243,2102,2101,2126,2
243,2102,2100,2126,2
243,2100,2100,2124,2
243,2097,2097,2121,2
243,2096,2095,2120,2
243,2098,2095,2119,2
243,2098,2097,2121,2
243,2098,2097,2121,2
243,2099,2097,2121,2
243,2098,2098,2122,2
243,2098,2098,2124,2
243,2098,2098,2123,2
243,2096,2096,2121,2
243,2098,2096,2121,2
243,2098,2099,2124,2
243,2103,2101,2124,2
243,2105,2103,2127,2
243,2105,2104,2127,2
243,2107,2103,2129,2
243,2100,2102,2126,2
243,2100,2094,2123,2
243,2095,2093,2123,2
243,2096,2093,2122,2
243,2096,2095,2122,2
243,2097,2095,2123,2
243,2099,2095,2123,2
243,2098,2096,2123,2
243,2098,2096,2123,2
243,2098,2096,2122,2
243,2095,2096,2122,2
243,2098,2096,2122,2
243,2098,2098,2124,2
243,2101,2100,2127,2
243,2104,2102,2128,2
243,2104,2104,2129,2
243,2103,2102,2129,2
243,2099,2102,2123,2
243,2095,2098,2120,2
243,2094,2096,2119,2
243,2097,2096,2119,2
243,2097,2096,2119,2
243,2097,2096,2120,2
243,2097,2097,2121,2
243,2099,2097,2121,2
243,2099,2098,2121,2
243,2097,2097,2120,2
243,2096,2097,2120,2
243,2100,2097,2121,2
243,2100,2101,2124,2
243,2104,2103,2124,2
243,2105,2103,2128,2
243,2104,2103,2128,2
243,2102,2100,2129,2
243,2099,2098,2125,2
243,2095,2093,2125,2
243,2095,2093,2121,2
243,2095,2095,2121,2
243,2097,2095,2121,2
243,2098,2096,2121,2
243,2097,2096,2121,2
243,2099,2096,2123,2
243,2098,2096,2122,2
243,2098,2095,2121,2
243,2098,2096,2121,2
243,2100,2096,2124,2
243,2101,2099,2126,2
243,2104,2101,2128,2
243,2106,2103,2129,2
243,2105,2103,2126,2
243,2100,2103,2126,2
243,2100,2096,2122,2
243,2094,2094,2122,2
243,2096,2093,2120,2
243,2095,2095,2120,2
243,2096,2095,2122,2
243,2097,2095,2122,2
243,2097,2097,2123,2
243,2098,2097,2123,2
243,2098,2097,2121,2
243,2095,2096,2120,2
243,2097,2097,2121,2
243,2101,2098,2123,2
243,2101,2100,2127,2
243,2104,2100,2127,2
243,2104,2103,2127,2
243,2105,2102,2127,2
243,2102,2101,2125,2
243,2098,2097,2120,2
243,2096,2095,2119,2
243,2098,2095,2119,2
243,2098,2097,2120,2
243,2097,2097,2120,2
243,2098,2097,2121,2
243,2098,2097,2121,2
243,2098,2097,2123,2
243,2096,2097,2122,2
243,2096,2096,2122,2
243,2098,2096,2123,2
243,2098,2100,2125,2
243,2103,2102,2125,2
243,2105,2104,2127,2
243,2105,2104,2127,2
243,2104,2102,2128,2
243,2099,2100,2123,2
243,2099,2094,2120,2
243,2095,2094,2120,2
243,2097,2094,2120,2
243,2096,2094,2120,2
243,2097,2095,2121,2
243,2099,2095,2121,2
243,2099,2097,2121,2
243,2098,2097,2121,2
243,2098,2096,2120,2
243,2096,2096,2120,2
243,2099,2096,2122,2
243,2099,2099,2124,2
243,2102,2102,2127,2
243,2103,2102,2130,2
243,2103,2104,2129,2
243,2100,2101,2129,2
243,2097,2098,2125,2
243,2094,2095,2121,2
243,2095,2095,2120,2
243,2097,2096,2121,2
243,2097,2096,2121,2
243,2097,2096,2121,2
243,2097,2097,2121,2
243,2098,2097,2123,2
243,2098,2097,2122,2
243,2096,2096,2119,2
243,2097,2097,2119,2
243,2099,2097,2123,2
243,2099,2101,2126,2
243,2104,2102,2126,2
243,2105,2104,2127,2
243,2104,2104,2126,2
243,2102,2100,2126,2
243,2096,2097,2122,2
243,2096,2093,2122,2
243,2096,2093,2120,2
243,2096,2095,2121,2
243,2097,2095,2123,2
243,2098,2095,2123,2
243,2097,2096,2122,2
243,2098,2096,2123,2
243,2097,2096,2121,2
243,2097,2094,2120,2
243,2099,2096,2120,2
243,2101,2098,2123,2
243,2102,2100,2125,2
243,2104,2101,2128,2
243,2104,2103,2130,2
243,2103,2102,2130,2
243,2099,2102,2125,2
243,2099,2094,2121,2
243,2096,2093,2119,2
243,2098,2093,2119,2
243,2097,2094,2119,2
243,2098,2095,2121,2
243,2098,2095,2122,2
243,2098,2097,2122,2
243,2098,2096,2122,2
243,2097,2096,2121,2
243,2094,2095,2121,2
243,2096,2097,2122,2
243,2096,2099,2126,2
243,2100,2101,2126,2
243,2102,2101,2129,2
243,2102,2102,2129,2
243,2102,2100,2130,2
243,2099,2099,2126,2
243,2095,2096,2121,2
243,2094,2094,2120,2
243,2095,2094,2122,2
243,2095,2095,2122,2
243,2096,2095,2122,2
243,2098,2096,2122,2
243,2097,2097,2122,2
243,2097,2096,2123,2
243,2097,2096,2120,2
243,2095,2096,2120,2
243,2098,2096,2122,2
243,2098,2100,2125,2
243,2101,2101,2127,2
243,2103,2102,2127,2
243,2103,2103,2126,2
243,2103,2098,2127,2
243,2098,2098,2120,2
243,2098,2093,2118,2
243,2097,2093,2118,2
243,2098,2094,2119,2
243,2097,2094,2119,2
243,2097,2095,2120,2
243,2097,2095,2122,2
243,2098,2095,2122,2
243,2097,2095,2122,2
243,2097,2093,2120,2
243,2097,2095,2120,2
243,2100,2097,2121,2
243,2100,2099,2125,2
243,2103,2100,2125,2
243,2103,2100,2127,2
243,2103,2099,2125,2
243,2100,2096,2125,2
243,2098,2094,2122,2
243,2095,2093,2120,2
243,2096,2096,2121,2
243,2096,2096,2123,2
243,2097,2096,2123,2
243,2097,2096,2123,2
243,2097,2096,2123,2
243,2098,2096,2125,2
243,2099,2096,2123,2
243,2097,2095,2121,2
243,2097,2097,2121,2
243,2099,2097,2124,2
243,2099,2100,2125,2
243,2100,2100,2126,2
243,2100,2101,2126,2
243,2099,2100,2123,2
243,2098,2095,2122,2
243,2098,2095,2119,2
243,2095,2095,2119,2
243,2096,2095,2120,2
243,2096,2096,2120,2
243,2097,2096,2121,2
243,2099,2097,2121,2
243,2099,2097,2122,2
243,2097,2097,2122,2
243,2096,2097,2121,2
243,2096,2096,2121,2
243,2097,2097,2123,2
243,2100,2098,2123,2
243,2100,2099,2123,2
243,2101,2100,2125,2
243,2101,2100,2126,2
243,2100,2098,2126,2
243,2098,2098,2122,2
243,2095,2096,2120,2
243,2095,2096,2120,2
243,2098,2096,2120,2
243,2098,2096,2121,2
243,2097,2096,2121,2
243,2097,2096,2122,2
243,2097,2097,2122,2
243,2097,2097,2123,2
243,2097,2097,2121,2
243,2096,2097,2120,2
243,2098,2098,2122,2
243,2098,2098,2125,2
243,2100,2099,2125,2
243,2100,2099,2126,2
243,2100,2099,2125,2
243,2099,2097,2125,2
243,2098,2096,2122,2
243,2095,2095,2119,2
243,2095,2095,2119,2
243,2096,2095,2121,2
243,2096,2096,2121,2
243,2097,2096,2122,2
243,2098,2097,2122,2
243,2097,2097,2121,2
243,2096,2097,2122,2
243,2096,2096,2121,2
243,2095,2097,2121,2
243,2097,2097,2123,2
243,2097,2098,2124,2
243,2099,2099,2126,2
243,2101,2100,2126,2
243,2100,2100,2123,2
243,2097,2098,2123,2
243,2096,2098,2120,2
243,2096,2095,2119,2
243,2097,2095,2120,2
243,2098,2096,2120,2
243,2097,2096,2121,2
243,2097,2096,2121,2
243,2097,2097,2122,2
243,2097,2097,2122,2
243,2097,2097,2121,2
243,2095,2096,2120,2
243,2096,2097,2121,2
243,2099,2098,2122,2
243,2099,2099,2124,2
243,2100,2100,2124,2
243,2100,2100,2124,2
243,2100,2099,2123,2
243,2099,2096,2123,2
243,2098,2094,2120,2
243,2095,2094,2120,2
243,2096,2094,2120,2
243,2096,2096,2121,2
243,2097,2096,2121,2
243,2098,2096,2122,2
243,2098,2097,2122,2
243,2098,2096,2123,2
243,2096,2096,2122,2
243,2096,2095,2122,2
243,2098,2096,2122,2
243,2099,2096,2124,2
243,2099,2097,2124,2
243,2101,2098,2126,2
243,2102,2099,2125,2
243,2100,2098,2122,2
243,2096,2098,2122,2
243,2096,2094,2121,2
243,2095,2094,2121,2
243,2097,2094,2122,2
243,2096,2095,2122,2
243,2098,2095,2123,2
243,2100,2096,2123,2
243,2100,2098,2123,2
243,2098,2097,2123,2
243,2097,2097,2121,2
243,2095,2097,2121,2
243,2097,2097,2123,2
243,2100,2098,2124,2
243,2100,2099,2125,2
243,2100,2099,2125,2
243,2100,2100,2125,2
243,2098,2098,2125,2
243,2096,2098,2120,2
243,2094,2096,2119,2
243,2095,2096,2120,2
243,2098,2096,2120,2
243,2097,2096,2121,2
243,2097,2096,2121,2
243,2098,2096,2123,2
243,2098,2097,2122,2
243,2098,2096,2123,2
243,2098,2096,2121,2
243,2096,2096,2123,2
243,2098,2096,2123,2
243,2098,2098,2124,2
243,2101,2099,2124,2
243,2102,2099,2125,2
243,2101,2099,2124,2
243,2100,2097,2124,2
243,2099,2096,2122,2
243,2096,2095,2120,2
243,2096,2096,2120,2
243,2097,2096,2122,2
243,2097,2096,2122,2
243,2098,2096,2123,2
243,2099,2097,2123,2
243,2098,2097,2121,2
243,2096,2097,2121,2
243,2096,2095,2121,2
243,2097,2096,2121,2
243,2099,2096,2123,2
243,2099,2098,2124,2
243,2101,2099,2126,2
243,2103,2100,2126,2
243,2102,2100,2123,2
243,2097,2097,2123,2
243,2096,2097,2120,2
243,2096,2095,2120,2
243,2096,2096,2121,2
243,2098,2097,2121,2
243,2097,2097,2120,2
243,2098,2097,2122,2
243,2098,2098,2123,2
243,2098,2097,2123,2
243,2097,2097,2121,2
243,2095,2096,2121,2
243,2097,2097,2122,2
243,2100,2098,2123,2
243,2100,2099,2125,2
243,2101,2099,2125,2
243,2101,2099,2125,2
243,2101,2097,2123,2
243,2099,2095,2123,2
243,2098,2095,2121,2
243,2096,2095,2120,2
243,2097,2096,2121,2
243,2097,2096,2122,2
243,2097,2096,2122,2
243,2098,2096,2122,2
243,2097,2097,2122,2
243,2098,2097,2123,2
243,2098,2097,2122,2
243,2096,2097,2122,2
243,2098,2098,2122,2
243,2099,2098,2124,2
243,2099,2099,2125,2
243,2101,2099,2126,2
243,2101,2100,2125,2
243,2099,2098,2122,2
243,2098,2095,2122,2
243,2098,2095,2120,2
243,2096,2095,2120,2
243,2097,2095,2122,2
243,2097,2096,2122,2
243,2098,2096,2123,2
243,2099,2097,2123,2
243,2098,2097,2122,2
243,2096,2096,2122,2
243,2096,2096,2120,2
243,2096,2097,2121,2
243,2098,2098,2124,2
243,2100,2099,2125,2
243,2100,2100,2125,2
243,2101,2100,2126,2
243,2101,2100,2125,2
243,2098,2098,2125,2
243,2097,2098,2121,2
243,2095,2096,2120,2
243,2096,2096,2120,2
243,2098,2097,2121,2
243,2097,2097,2121,2
243,2098,2097,2121,2
243,2098,2097,2123,2
243,2098,2097,2123,2
243,2097,2096,2123,2
243,2098,2096,2121,2
243,2097,2097,2121,2
243,2099,2099,2123,2
243,2099,2099,2126,2
243,2101,2100,2126,2
243,2101,2100,2126,2
243,2101,2099,2124,2
243,2099,2097,2124,2
243,2098,2096,2121,2
243,2096,2096,2121,2
243,2097,2097,2121,2
243,2097,2097,2123,2
243,2097,2097,2123,2
243,2097,2098,2123,2
243,2098,2098,2123,2
243,2097,2098,2121,2
243,2097,2096,2122,2
243,2097,2096,2122,2
243,2098,2097,2122,2
243,2099,2097,2124,2
243,2099,2099,2124,2
243,2101,2099,2126,2
243,2102,2100,2126,2
243,2100,2099,2123,2
243,2096,2097,2123,2
243,2096,2097,2120,2
243,2096,2096,2120,2
243,2097,2097,2122,2
243,2098,2097,2122,2
243,2097,2097,2122,2
243,2098,2098,2123,2
243,2098,2098,2124,2
243,2098,2097,2124,2
243,2097,2097,2122,2
243,2097,2096,2122,2
243,2098,2097,2123,2
243,2101,2098,2123,2
243,2101,2099,2125,2
243,2101,2100,2125,2
243,2101,2100,2125,2
243,2101,2097,2122,2
243,2098,2095,2121,2
243,2098,2094,2119,2
243,2097,2094,2119,2
243,2098,2096,2121,2
243,2098,2096,2123,2
243,2098,2096,2123,2
243,2099,2096,2123,2
243,2099,2096,2123,2
243,2099,2096,2123,2
243,2099,2096,2121,2
243,2097,2096,2122,2
243,2099,2097,2122,2
243,2100,2097,2125,2
243,2100,2099,2125,2
243,2100,2099,2126,2
243,2100,2100,2125,2
243,2097,2098,2122,2
243,2096,2095,2122,2
243,2097,2095,2121,2
243,2097,2096,2121,2
243,2097,2096,2123,2
243,2097,2096,2123,2
243,2098,2097,2124,2
243,2099,2098,2123,2
243,2098,2098,2121,2
243,2096,2097,2122,2
243,2096,2097,2121,2
243,2096,2098,2122,2
243,2100,2099,2122,2
243,2101,2100,2123,2
243,2101,2100,2123,2
243,2102,2100,2125,2
243,2099,2100,2124,2
243,2099,2096,2124,2
243,2097,2096,2121,2
243,2097,2095,2121,2
243,2097,2096,2122,2
243,2098,2097,2122,2
243,2097,2097,2122,2
243,2098,2097,2123,2
243,2098,2097,2124,2
243,2098,2097,2123,2
243,2097,2096,2123,2
243,2098,2096,2123,2
243,2098,2097,2123,2
243,2099,2098,2124,2
243,2102,2100,2125,2
243,2102,2101,2125,2
243,2101,2101,2126,2
243,2101,2099,2124,2
243,2099,2097,2124,2
243,2099,2095,2121,2
243,2096,2095,2120,2
243,2098,2097,2122,2
243,2098,2097,2123,2
243,2098,2097,2123,2
243,2099,2097,2123,2
243,2099,2098,2123,2
243,2098,2097,2122,2
243,2097,2096,2122,2
243,2097,2096,2123,2
243,2099,2098,2123,2
243,2100,2098,2125,2
243,2100,2099,2125,2
243,2101,2100,2126,2
243,2101,2100,2125,2
243,2099,2098,2123,2
243,2098,2095,2123,2
243,2097,2095,2121,2
243,2097,2096,2122,2
243,2099,2096,2122,2
243,2099,2097,2122,2
243,2098,2097,2122,2
243,2099,2097,2124,2
243,2099,2098,2123,2
243,2099,2097,2123,2
243,2098,2097,2120,2
243,2098,2097,2121,2
243,2099,2098,2123,2
243,2101,2099,2124,2
243,2101,2100,2124,2
243,2102,2100,2126,2
243,2100,2100,2125,2
243,2100,2097,2123,2
243,2097,2095,2123,2
243,2097,2095,2122,2
243,2096,2095,2122,2
243,2097,2095,2123,2
243,2097,2095,2124,2
243,2098,2096,2124,2
243,2098,2096,2125,2
243,2098,2097,2124,2
243,2097,2096,2124,2
243,2098,2096,2123,2
243,2097,2096,2123,2
243,2099,2098,2125,2
243,2101,2098,2127,2
243,2101,2100,2127,2
243,2101,2100,2128,2
243,2100,2100,2126,2
243,2098,2097,2123,2
243,2097,2096,2122,2
243,2097,2096,2122,2
243,2097,2097,2122,2
243,2097,2097,2123,2
243,2097,2097,2123,2
243,2098,2097,2124,2
243,2100,2098,2124,2
243,2099,2098,2122,2
243,2099,2097,2123,2
243,2099,2097,2123,2
243,2099,2099,2124,2
243,2102,2100,2124,2
243,2103,2100,2125,2
243,2103,2100,2125,2
243,2103,2099,2126,2
243,2100,2099,2124,2
243,2100,2096,2124,2
243,2098,2096,2121,2
243,2098,2096,2121,2
243,2098,2097,2123,2
243,2099,2098,2123,2
243,2098,2098,2122,2
243,2099,2099,2123,2
243,2099,2099,2124,2
243,2099,2098,2123,2
243,2098,2097,2123,2
243,2099,2097,2123,2
243,2098,2098,2123,2
243,2100,2099,2125,2
243,2102,2100,2126,2
243,2102,2101,2126,2
243,2101,2101,2126,2
243,2101,2098,2124,2
243,2098,2096,2124,2
243,2098,2095,2122,2
243,2097,2095,2122,2
243,2098,2097,2123,2
243,2098,2097,2123,2
243,2098,2097,2124,2
243,2099,2098,2124,2
243,2099,2098,2124,2
243,2098,2098,2122,2
243,2098,2097,2122,2
243,2100,2097,2122,2
243,2100,2099,2122,2
243,2101,2099,2126,2
243,2101,2100,2127,2
243,2102,2100,2127,2
243,2101,2100,2126,2
243,2098,2098,2123,2
243,2097,2095,2122,2
243,2097,2095,2120,2
243,2097,2097,2122,2
243,2099,2097,2122,2
243,2100,2097,2122,2
243,2099,2098,2122,2
243,2100,2098,2124,2
243,2099,2098,2123,2
243,2099,2097,2123,2
243,2098,2097,2122,2
243,2098,2099,2123,2
243,2100,2100,2123,2
243,2102,2101,2124,2
243,2101,2101,2124,2
243,2101,2101,2126,2
243,2099,2101,2126,2
243,2099,2097,2124,2
243,2097,2096,2124,2
243,2098,2096,2122,2
243,2098,2096,2122,2
243,2099,2096,2123,2
243,2101,2097,2123,2
243,2100,2098,2123,2
243,2100,2098,2124,2
243,2100,2098,2124,2
243,2098,2097,2124,2
243,2100,2097,2124,2
243,2099,2098,2124,2
243,2100,2099,2126,2
243,2102,2100,2126,2
243,2102,2100,2127,2
243,2102,2100,2127,2
243,2100,2100,2124,2
243,2098,2098,2122,2
243,2098,2097,2122,2
243,2100,2097,2122,2
243,2099,2097,2123,2
243,2099,2097,2123,2
243,2099,2098,2123,2
243,2100,2098,2123,2
243,2100,2099,2123,2
243,2098,2099,2122,2
243,2098,2098,2122,2
243,2101,2098,2122,2
243,2101,2100,2124,2
243,2102,2101,2124,2
243,2103,2101,2126,2
243,2102,2101,2125,2
243,2103,2100,2126,2
243,2102,2099,2124,2
243,2099,2097,2121,2
243,2097,2097,2121,2
243,2097,2097,2122,2
243,2099,2097,2122,2
243,2100,2098,2122,2
243,2099,2098,2122,2
243,2100,2098,2124,2
243,2100,2098,2124,2
243,2100,2098,2123,2
243,2098,2098,2123,2
243,2099,2098,2124,2
243,2099,2099,2124,2
243,2101,2100,2126,2
243,2103,2101,2126,2
243,2102,2101,2126,2
243,2100,2101,2126,2
243,2100,2098,2124,2
243,2097,2097,2124,2
243,2097,2097,2122,2
243,2096,2098,2122,2
243,2098,2098,2124,2
243,2098,2098,2124,2
243,2098,2098,2124,2
243,2099,2099,2124,2
243,2099,2099,2123,2
243,2098,2098,2122,2
243,2098,2098,2122,2
243,2101,2098,2123,2
243,2101,2099,2126,2
243,2102,2099,2126,2
243,2102,2101,2126,2
243,2103,2101,2126,2
243,2101,2101,2125,2
243,2098,2099,2122,2
243,2098,2097,2122,2
243,2100,2097,2122,2
243,2099,2097,2123,2
243,2099,2097,2123,2
243,2099,2097,2123,2
243,2099,2098,2124,2
243,2100,2098,2125,2
243,2100,2099,2124,2
243,2098,2098,2122,2
243,2099,2099,2123,2
243,2099,2099,2125,2
243,2102,2100,2125,2
243,2102,2100,2127,2
243,2102,2101,2127,2
243,2102,2101,2128,2
243,2102,2101,2127,2
243,2099,2098,2123,2
243,2097,2097,2123,2
243,2098,2097,2123,2
243,2098,2098,2123,2
243,2099,2097,2124,2
243,2101,2098,2124,2
243,2100,2098,2124,2
243,2100,2098,2125,2
243,2100,2098,2124,2
243,2098,2098,2124,2
243,2099,2098,2124,2
243,2099,2099,2125,2
243,2101,2100,2126,2
243,2103,2101,2126,2
243,2102,2101,2127,2
243,2101,2100,2127,2
243,2099,2100,2124,2
243,2099,2097,2123,2
243,2098,2097,2123,2
243,2100,2097,2123,2
243,2099,2097,2122,2
243,2100,2098,2123,2
243,2100,2098,2124,2
243,2101,2099,2124,2
243,2101,2099,2124,2
243,2099,2099,2123,2
243,2099,2099,2123,2
243,2101,2099,2123,2
243,2100,2100,2125,2
243,2102,2101,2125,2
243,2102,2101,2128,2
243,2102,2101,2128,2
243,2101,2100,2128,2
243,2100,2099,2125,2
243,2097,2097,2122,2
243,2097,2097,2122,2
243,2097,2097,2124,2
243,2098,2098,2124,2
243,2099,2098,2124,2
243,2098,2098,2124,2
243,2100,2098,2125,2
243,2101,2098,2124,2
243,2100,2098,2123,2
243,2098,2098,2123,2
243,2099,2098,2125,2
243,2099,2100,2126,2
243,2101,2101,2128,2
243,2103,2102,2128,2
243,2102,2102,2126,2
243,2101,2098,2126,2
243,2101,2098,2123,2
243,2097,2097,2123,2
243,2098,2097,2122,2
243,2097,2098,2123,2
243,2099,2098,2124,2
243,2100,2098,2123,2
243,2100,2099,2125,2
243,2100,2099,2125,2
243,2100,2099,2125,2
243,2100,2097,2124,2
243,2100,2098,2124,2
243,2102,2099,2125,2
243,2102,2100,2125,2
243,2103,2102,2127,2
243,2103,2102,2128,2
243,2103,2102,2128,2
243,2101,2102,2125,2
243,2098,2099,2123,2
243,2098,2098,2123,2
243,2100,2098,2123,2
243,2099,2099,2124,2
243,2099,2099,2124,2
243,2099,2099,2124,2
243,2099,2100,2124,2
243,2100,2099,2126,2
243,2100,2099,2125,2
243,2099,2098,2124,2
243,2100,2099,2125,2
243,2100,2099,2127,2
243,2102,2100,2127,2
243,2103,2100,2128,2
243,2102,2101,2128,2
243,2102,2100,2129,2
243,2101,2100,2127,2
243,2098,2098,2124,2
243,2096,2098,2124,2
243,2097,2098,2125,2
243,2097,2099,2125,2
243,2098,2099,2126,2
243,2100,2099,2126,2
243,2100,2099,2125,2
243,2100,2098,2125,2
243,2100,2098,2124,2
243,2098,2098,2124,2
243,2099,2098,2124,2
243,2099,2100,2125,2
243,2101,2101,2127,2
243,2103,2102,2127,2
243,2102,2102,2126,2
243,2101,2101,2126,2
243,2099,2101,2123,2
243,2099,2097,2122,2
243,2099,2097,2122,2
243,2101,2097,2123,2
243,2100,2098,2122,2
243,2101,2099,2124,2
243,2101,2099,2125,2
243,2102,2100,2125,2
243,2101,2100,2125,2
243,2100,2099,2123,2
243,2100,2099,2123,2
243,2102,2100,2124,2
243,2101,2101,2126,2
243,2103,2101,2126,2
243,2103,2101,2127,2
243,2103,2101,2127,2
243,2102,2099,2127,2
243,2101,2098,2124,2
243,2098,2097,2122,2
243,2099,2098,2123,2
243,2099,2098,2125,2
243,2100,2098,2125,2
243,2100,2098,2125,2
243,2099,2099,2125,2
243,2100,2099,2126,2
243,2101,2099,2125,2
243,2099,2098,2123,2
243,2099,2099,2123,2
243,2100,2099,2125,2
243,2100,2101,2126,2
243,2101,2102,2128,2
243,2103,2103,2128,2
243,2102,2102,2125,2
243,2098,2102,2125,2
243,2098,2098,2123,2
243,2096,2098,2123,2
243,2098,2098,2123,2
243,2098,2099,2123,2
243,2099,2099,2125,2
243,2101,2099,2125,2
243,2101,2100,2125,2
243,2101,2099,2125,2
243,2100,2099,2124,2
243,2100,2098,2123,2
243,2101,2099,2124,2
243,2103,2100,2125,2
243,2103,2101,2127,2
243,2103,2101,2127,2
243,2103,2102,2127,2
243,2102,2101,2127,2
243,2101,2101,2124,2
243,2098,2099,2122,2
243,2098,2098,2122,2
243,2100,2098,2123,2
243,2100,2099,2123,2
243,2100,2099,2123,2
243,2100,2099,2124,2
243,2100,2100,2124,2
243,2100,2099,2125,2
243,2100,2099,2124,2
243,2098,2098,2125,2
243,2100,2098,2125,2
243,2100,2100,2126,2
243,2103,2101,2126,2
243,2104,2102,2127,2
243,2103,2102,2127,2
243,2103,2101,2128,2
243,2099,2100,2125,2
243,2099,2097,2124,2
243,2098,2097,2124,2
243,2099,2097,2124,2
243,2099,2098,2124,2
243,2100,2098,2125,2
243,2102,2099,2125,2
243,2101,2099,2124,2
243,2100,2099,2124,2
243,2100,2098,2123,2
243,2099,2099,2123,2
243,2101,2099,2124,2
243,2101,2100,2125,2
243,2103,2101,2127,2
243,2103,2102,2127,2
243,2103,2102,2127,2
243,2102,2100,2127,2
243,2100,2100,2123,2
243,2097,2099,2122,2
243,2098,2099,2122,2
243,2100,2100,2123,2
243,2100,2099,2123,2
243,2100,2099,2124,2
243,2100,2100,2125,2
243,2100,2100,2127,2
243,2100,2100,2126,2
243,2099,2099,2124,2
243,2099,2100,2124,2
243,2100,2100,2126,2
243,2100,2101,2127,2
243,2103,2101,2127,2
243,2103,2102,2127,2
243,2102,2102,2125,2
243,2101,2100,2125,2
243,2098,2098,2122,2
243,2098,2096,2122,2
243,2099,2096,2123,2
243,2099,2098,2123,2
243,2099,2098,2124,2
243,2100,2099,2124,2
243,2099,2099,2124,2
243,2100,2099,2125,2
243,2099,2099,2124,2
243,2099,2098,2124,2
243,2101,2099,2124,2
243,2102,2100,2125,2
243,2101,2100,2125,2
243,2102,2100,2127,2
243,2102,2101,2128,2
243,2102,2100,2128,2
243,2100,2100,2124,2
243,2100,2096,2123,2
243,2099,2096,2123,2
243,2101,2097,2123,2
243,2100,2097,2122,2
243,2100,2098,2124,2
243,2100,2098,2125,2
243,2100,2099,2125,2
243,2101,2099,2125,2
243,2100,2099,2124,2
243,2098,2099,2124,2
243,2100,2100,2125,2
243,2100,2101,2127,2
243,2102,2102,2127,2
243,2103,2102,2128,2
243,2103,2102,2128,2
243,2103,2100,2128,2
243,2101,2099,2125,2
243,2098,2097,2122,2
243,2097,2098,2122,2
243,2098,2098,2124,2
243,2098,2098,2124,2
243,2100,2098,2124,2
243,2101,2099,2125,2
243,2100,2099,2124,2
243,2100,2098,2125,2
243,2100,2098,2123,2
243,2099,2099,2123,2
243,2100,2099,2125,2
243,2100,2101,2125,2
243,2101,2101,2127,2
243,2103,2102,2127,2
243,2102,2102,2126,2
243,2100,2100,2126,2
243,2098,2100,2122,2
243,2098,2097,2122,2
243,2098,2097,2123,2
243,2100,2098,2123,2
243,2099,2098,2123,2
243,2100,2099,2124,2
243,2100,2099,2126,2
243,2101,2099,2126,2
243,2101,2099,2125,2
243,2099,2098,2124,2
243,2100,2098,2125,2
243,2103,2099,2125,2
243,2102,2100,2127,2
243,2102,2101,2127,2
243,2103,2101,2127,2
243,2103,2100,2126,2
243,2101,2098,2126,2
243,2100,2097,2123,2
243,2097,2096,2123,2
243,2098,2096,2123,2
243,2098,2098,2124,2
243,2099,2098,2124,2
243,2100,2098,2124,2
243,2099,2099,2124,2
243,2100,2099,2126,2
243,2101,2099,2125,2
243,2099,2098,2124,2
243,2100,2099,2124,2
243,2101,2099,2126,2
243,2101,2102,2126,2
243,2102,2102,2128,2
243,2103,2102,2127,2
243,2102,2101,2124,2
243,2098,2101,2124,2
243,2098,2097,2123,2
243,2097,2097,2123,2
243,2099,2097,2123,2
243,2099,2098,2123,2
243,2100,2098,2124,2
243,2102,2098,2124,2
243,2101,2099,2124,2
243,2100,2099,2124,2
243,2099,2099,2124,2
243,2099,2098,2124,2
243,2100,2099,2125,2
243,2102,2100,2126,2
243,2101,2101,2127,2
243,2102,2101,2127,2
243,2102,2102,2127,2
243,2101,2100,2127,2
243,2099,2100,2123,2
243,2096,2098,2122,2
243,2097,2098,2122,2
243,2100,2099,2123,2
243,2099,2100,2123,2
243,2100,2100,2123,2
243,2101,2100,2125,2
243,2101,2100,2125,2
243,2101,2099,2126,2
243,2101,2099,2124,2
243,2099,2099,2125,2
243,2101,2099,2125,2
243,2101,2101,2126,2
243,2102,2101,2126,2
243,2103,2101,2128,2
243,2102,2101,2127,2
243,2101,2099,2127,2
243,2101,2098,2124,2
243,2098,2097,2121,2
243,2098,2098,2121,2
243,2099,2098,2124,2
243,2099,2098,2123,2
243,2100,2099,2124,2
243,2102,2100,2124,2
243,2101,2100,2124,2
243,2099,2100,2124,2
243,2099,2098,2124,2
243,2100,2099,2124,2
243,2101,2099,2125,2
243,2101,2100,2125,2
243,2103,2101,2127,2
243,2103,2102,2127,2
243,2103,2102,2126,2
243,2099,2100,2126,2
243,2098,2100,2121,2
243,2096,2099,2121,2
243,2097,2099,2123,2
243,2099,2100,2123,2
243,2099,2100,2124,2
243,2100,2100,2124,2
243,2100,2100,2125,2
243,2101,2100,2125,2
243,2100,2100,2123,2
243,2098,2099,2123,2
243,2099,2099,2124,2
243,2102,2099,2125,2
243,2102,2101,2126,2
243,2103,2102,2126,2
243,2103,2102,2126,2
243,2101,2101,2124,2
243,2100,2098,2124,2
243,2100,2097,2122,2
243,2098,2097,2122,2
243,2099,2097,2122,2
243,2099,2098,2122,2
243,2100,2098,2122,2
243,2101,2099,2123,2
243,2100,2099,2123,2
243,2100,2099,2124,2
243,2098,2099,2123,2
243,2098,2099,2124,2
243,2100,2100,2124,2
243,2101,2100,2126,2
243,2101,2101,2126,2
243,2103,2101,2128,2
243,2104,2102,2128,2
243,2102,2099,2128,2
243,2099,2099,2124,2
243,2099,2096,2123,2
243,2098,2096,2123,2
243,2100,2097,2124,2
243,2099,2097,2123,2
243,2099,2097,2124,2
243,2101,2098,2124,2
243,2101,2098,2124,2
243,2100,2098,2124,2
243,2100,2098,2123,2
243,2098,2098,2123,2
243,2100,2099,2125,2
243,2102,2100,2125,2
243,2102,2101,2126,2
243,2102,2101,2126,2
243,2102,2101,2126,2
243,2100,2099,2126,2
243,2099,2098,2123,2
243,2096,2097,2121,2
243,2097,2097,2122,2
243,2099,2098,2123,2
243,2099,2098,2123,2
243,2100,2099,2123,2
243,2100,2099,2125,2
243,2099,2099,2124,2
243,2099,2098,2125,2
243,2100,2098,2123,2
243,2099,2098,2125,2
243,2101,2098,2125,2
243,2101,2100,2127,2
243,2102,2100,2127,2
243,2103,2101,2127,2
243,2102,2101,2125,2
243,2101,2098,2125,2
243,2098,2097,2123,2
243,2098,2096,2123,2
243,2099,2097,2123,2
243,2099,2097,2123,2
243,2098,2097,2123,2
243,2099,2098,2125,2
243,2101,2099,2125,2
243,2100,2099,2123,2
243,2098,2099,2123,2
243,2098,2098,2123,2
243,2099,2099,2123,2
243,2101,2100,2124,2
243,2101,2100,2125,2
243,2103,2100,2127,2
243,2102,2101,2127,2
243,2102,2100,2125,2
243,2099,2098,2125,2
243,2098,2098,2121,2
243,2096,2098,2121,2
243,2097,2098,2123,2
243,2099,2099,2123,2
243,2099,2099,2124,2
243,2100,2099,2124,2
243,2100,2100,2125,2
243,2100,2100,2125,2
243,2099,2100,2124,2
243,2098,2099,2124,2
243,2099,2099,2125,2
243,2102,2100,2125,2
243,2102,2101,2126,2
243,2103,2101,2126,2
243,2103,2101,2126,2
243,2101,2100,2124,2
243,2100,2098,2124,2
243,2100,2097,2122,2
243,2098,2097,2122,2
243,2099,2097,2124,2
243,2099,2098,2124,2
243,2100,2098,2124,2
243,2101,2098,2124,2
243,2100,2099,2124,2
243,2100,2098,2125,2
243,2099,2098,2124,2
243,2099,2099,2125,2
243,2100,2100,2125,2
243,2101,2100,2127,2
243,2101,2101,2127,2
243,2102,2101,2129,2
243,2102,2102,2128,2
243,2100,2100,2123,2
243,2096,2100,2123,2
243,2096,2096,2122,2
243,2098,2097,2122,2
243,2099,2098,2123,2
243,2098,2098,2123,2
243,2099,2098,2124,2
243,2101,2099,2124,2
243,2101,2100,2124,2
243,2099,2099,2124,2
243,2099,2099,2123,2
243,2098,2100,2123,2
243,2101,2100,2126,2
243,2103,2100,2127,2
243,2103,2101,2128,2
243,2103,2101,2128,2
243,2103,2101,2127,2
243,2100,2099,2127,2
243,2098,2098,2124,2
243,2096,2097,2123,2
243,2098,2098,2124,2
243,2100,2099,2124,2
243,2100,2099,2124,2
243,2101,2099,2124,2
243,2101,2099,2126,2
243,2100,2099,2125,2
243,2100,2098,2125,2
243,2102,2098,2124,2
243,2101,2099,2126,2
243,2102,2099,2126,2
243,2102,2101,2127,2
243,2104,2102,2127,2
243,2104,2103,2127,2
243,2102,2102,2125,2
243,2100,2099,2125,2
243,2099,2098,2123,2
243,2099,2097,2123,2
243,2100,2098,2123,2
243,2100,2098,2124,2
243,2099,2098,2124,2
243,2101,2098,2125,2
243,2101,2099,2125,2
243,2101,2099,2125,2
243,2100,2099,2124,2
243,2100,2098,2125,2
243,2102,2099,2125,2
243,2103,2100,2125,2
243,2103,2100,2125,2
243,2104,2100,2127,2
243,2103,2101,2128,2
243,2103,2099,2126,2
243,2099,2098,2126,2
243,2099,2098,2123,2
243,2097,2098,2123,2
243,2100,2098,2125,2
243,2101,2099,2125,2
243,2101,2099,2125,2
243,2101,2099,2126,2
243,2101,2100,2126,2
243,2100,2099,2126,2
243,2099,2099,2125,2
243,2098,2099,2125,2
243,2100,2099,2127,2
243,2100,2101,2128,2
243,2100,2102,2128,2
243,2102,2102,2128,2
243,2102,2102,2126,2
243,2100,2100,2123,2
243,2099,2098,2123,2
243,2099,2098,2122,2
243,2099,2099,2122,2
243,2099,2099,2124,2
243,2099,2099,2124,2
243,2100,2099,2125,2
243,2102,2100,2125,2
243,2101,2100,2124,2
243,2101,2099,2125,2
243,2101,2099,2125,2
243,2101,2100,2126,2
243,2102,2101,2126,2
243,2103,2102,2126,2
243,2103,2102,2126,2
243,2103,2102,2128,2
243,2100,2102,2126,2
243,2100,2098,2126,2
243,2098,2098,2123,2
243,2098,2097,2123,2
243,2099,2098,2124,2
243,2100,2099,2124,2
243,2099,2099,2123,2
243,2100,2100,2124,2
243,2100,2100,2126,2
243,2100,2099,2126,2
243,2099,2098,2126,2
243,2100,2098,2125,2
243,2099,2099,2125,2
243,2101,2100,2127,2
243,2103,2101,2127,2
243,2103,2102,2127,2
243,2103,2102,2127,2
243,2103,2101,2125,2
243,2101,2099,2125,2
243,2100,2098,2123,2
243,2098,2098,2122,2
243,2100,2099,2123,2
243,2100,2099,2125,2
243,2100,2100,2125,2
243,2102,2100,2125,2
243,2102,2101,2125,2
243,2100,2100,2124,2
243,2100,2099,2125,2
243,2100,2099,2126,2
243,2101,2100,2126,2
243,2102,2100,2128,2
243,2102,2102,2128,2
243,2102,2102,2129,2
243,2103,2102,2128,2
243,2101,2101,2124,2
243,2097,2099,2124,2
243,2097,2099,2122,2
243,2097,2098,2123,2
243,2099,2099,2125,2
243,2100,2099,2125,2
243,2099,2099,2125,2
243,2100,2100,2126,2
243,2100,2100,2125,2
243,2099,2099,2125,2
243,2099,2099,2123,2
243,2098,2099,2124,2
243,2099,2100,2126,2
243,2102,2101,2126,2
243,2102,2101,2127,2
243,2102,2101,2127,2
243,2101,2101,2126,2
243,2101,2098,2124,2
243,2099,2097,2124,2
243,2100,2097,2122,2
243,2099,2098,2122,2
243,2101,2099,2124,2
243,2101,2099,2125,2
243,2101,2100,2125,2
243,2101,2100,2125,2
243,2100,2100,2125,2
243,2100,2099,2125,2
243,2101,2099,2124,2
243,2100,2099,2125,2
243,2102,2100,2125,2
243,2103,2100,2127,2
243,2103,2101,2127,2
243,2103,2101,2128,2
243,2103,2101,2126,2
243,2100,2099,2123,2
243,2097,2099,2123,2
243,2097,2098,2123,2
243,2098,2099,2123,2
243,2099,2100,2124,2
243,2098,2100,2124,2
243,2100,2100,2125,2
243,2101,2101,2125,2
243,2101,2100,2125,2
243,2100,2099,2125,2
243,2101,2099,2124,2
243,2101,2101,2125,2
243,2103,2101,2127,2
243,2105,2102,2127,2
243,2104,2102,2128,2
243,2102,2102,2128,2
243,2102,2101,2126,2
243,2099,2099,2126,2
243,2099,2098,2124,2
243,2097,2097,2123,2
243,2099,2098,2125,2
243,2100,2099,2125,2
243,2100,2099,2125,2
243,2101,2099,2125,2
243,2101,2099,2126,2
243,2099,2099,2125,2
243,2099,2099,2125,2
243,2101,2099,2125,2
243,2101,2100,2126,2
243,2103,2100,2126,2
243,2103,2102,2127,2
243,2104,2102,2127,2
243,2104,2102,2127,2
243,2102,2100,2124,2
243,2100,2098,2124,2
243,2099,2097,2123,2
243,2099,2098,2124,2
243,2100,2099,2124,2
243,2101,2099,2125,2
243,2100,2099,2125,2
243,2102,2099,2126,2
243,2103,2100,2126,2
243,2101,2100,2123,2
243,2099,2100,2123,2
243,2099,2100,2125,2
243,2102,2100,2125,2
243,2103,2101,2126,2
243,2103,2102,2126,2
243,2103,2102,2128,2
243,2102,2102,2127,2
243,2102,2099,2125,2
243,2098,2098,2125,2
243,2098,2098,2122,2
243,2098,2098,2122,2
243,2100,2098,2124,2
243,2101,2099,2124,2
243,2101,2100,2124,2
243,2101,2100,2126,2
243,2101,2100,2125,2
243,2100,2099,2125,2
243,2100,2099,2124,2
243,2099,2099,2124,2
243,2101,2101,2126,2
243,2101,2101,2128,2
243,2101,2102,2128,2
243,2103,2102,2128,2
243,2102,2101,2127,2
243,2099,2099,2124,2
243,2098,2098,2124,2
243,2100,2098,2124,2
243,2100,2100,2124,2
243,2100,2100,2125,2
243,2100,2100,2125,2
243,2102,2100,2125,2
243,2102,2100,2125,2
243,2100,2100,2124,2
243,2100,2099,2124,2
243,2100,2099,2125,2
243,2100,2100,2126,2
243,2103,2101,2126,2
243,2104,2102,2126,2
243,2103,2102,2126,2
243,2103,2101,2128,2
243,2100,2101,2126,2
243,2100,2098,2126,2
243,2098,2098,2123,2
243,2098,2097,2123,2
243,2099,2098,2124,2
243,2100,2099,2124,2
243,2099,2099,2123,2
243,2100,2100,2124,2
243,2100,2100,2126,2
243,2100,2099,2125,2
243,2099,2099,2125,2
243,2101,2099,2125,2
243,2101,2100,2125,2
243,2102,2101,2127,2
243,2104,2102,2127,2
243,2104,2102,2127,2
243,2103,2102,2127,2
243,2103,2099,2125,2
243,2100,2098,2124,2
243,2100,2097,2123,2
243,2098,2097,2123,2
243,2099,2098,2125,2
243,2100,2098,2125,2
243,2100,2098,2125,2
243,2101,2099,2125,2
243,2101,2099,2125,2
243,2100,2099,2124,2
243,2100,2099,2124,2
243,2102,2099,2124,2
243,2102,2101,2124,2
243,2103,2101,2127,2
243,2103,2102,2127,2
243,2103,2102,2128,2
243,2103,2102,2127,2
243,2101,2100,2124,2
243,2100,2097,2123,2
243,2100,2097,2122,2
243,2100,2098,2123,2
243,2101,2099,2123,2
243,2101,2099,2123,2
243,2100,2099,2123,2
243,2100,2099,2125,2
243,2100,2099,2124,2
243,2100,2098,2124,2
243,2100,2098,2123,2
243,2100,2098,2124,2
243,2101,2099,2126,2
243,2103,2100,2127,2
243,2103,2101,2126,2
243,2103,2101,2127,2
243,2101,2101,2126,2
243,2101,2097,2124,2
243,2098,2096,2124,2
243,2099,2096,2123,2
243,2098,2097,2123,2
243,2099,2097,2124,2
243,2100,2098,2124,2
243,2100,2100,2124,2
243,2100,2100,2125,2
243,2100,2099,2124,2
243,2100,2098,2125,2
243,2101,2098,2125,2
243,2100,2099,2125,2
243,2101,2100,2127,2
243,2102,2100,2129,2
243,2102,2102,2129,2
243,2102,2101,2129,2
243,2101,2101,2127,2
243,2098,2099,2124,2
243,2098,2098,2123,2
243,2100,2098,2123,2
243,2100,2099,2123,2
243,2100,2099,2124,2
243,2100,2099,2124,2
243,2102,2100,2124,2
243,2102,2100,2125,2
243,2100,2099,2124,2
243,2099,2098,2124,2
243,2100,2098,2125,2
243,2100,2100,2126,2
243,2103,2101,2126,2
243,2104,2102,2126,2
243,2103,2102,2126,2
243,2103,2101,2127,2
243,2099,2100,2125,2
243,2099,2097,2125,2
243,2098,2097,2122,2
243,2098,2097,2123,2
243,2100,2097,2123,2
243,2101,2097,2123,2
243,2099,2097,2123,2
243,2100,2099,2124,2
243,2100,2099,2125,2
243,2100,2098,2124,2
243,2098,2098,2124,2
243,2100,2099,2125,2
243,2100,2100,2125,2
243,2102,2100,2127,2
243,2103,2101,2127,2
243,2103,2101,2127,2
243,2102,2101,2126,2
243,2102,2098,2124,2
243,2100,2097,2124,2
243,2100,2097,2123,2
243,2099,2097,2123,2
243,2100,2098,2124,2
243,2100,2098,2125,2
243,2100,2099,2125,2
243,2101,2099,2125,2
243,2101,2099,2125,2
243,2099,2098,2123,2
243,2100,2098,2123,2
243,2102,2099,2124,2
243,2102,2101,2124,2
243,2103,2101,2127,2
243,2103,2102,2127,2
243,2103,2102,2128,2
243,2102,2102,2126,2
243,2099,2099,2123,2
243,2098,2097,2123,2
243,2098,2097,2123,2
243,2098,2098,2123,2
243,2099,2098,2123,2
243,2100,2099,2124,2
243,2099,2099,2124,2
243,2100,2099,2125,2
243,2099,2099,2124,2
243,2099,2099,2124,2
243,2099,2099,2124,2
243,2099,2100,2125,2
243,2102,2101,2125,2
243,2104,2102,2125,2
243,2103,2102,2125,2
243,2103,2100,2126,2
243,2100,2100,2125,2
243,2100,2097,2123,2
243,2098,2097,2123,2
243,2099,2097,2123,2
243,2099,2098,2123,2
243,2100,2098,2124,2
243,2101,2098,2124,2
243,2101,2098,2124,2
243,2101,2098,2125,2
243,2101,2098,2124,2
243,2100,2097,2124,2
243,2101,2097,2124,2
243,2101,2098,2124,2
243,2103,2100,2126,2
243,2103,2100,2127,2
243,2103,2101,2127,2
243,2102,2100,2127,2
243,2100,2100,2125,2
243,2097,2098,2122,2
243,2097,2098,2122,2
243,2099,2098,2122,2
243,2099,2099,2122,2
243,2099,2099,2124,2
243,2099,2098,2124,2
243,2100,2098,2126,2
243,2100,2098,2125,2
243,2099,2098,2124,2
243,2099,2099,2124,2
243,2100,2099,2125,2
243,2100,2100,2126,2
243,2103,2100,2126,2
243,2104,2101,2126,2
243,2103,2101,2126,2
243,2103,2099,2127,2
243,2099,2098,2124,2
243,2099,2096,2124,2
243,2099,2096,2122,2
243,2099,2097,2123,2
243,2099,2097,2125,2
243,2100,2098,2125,2
243,2099,2098,2124,2
243,2100,2099,2125,2
243,2099,2099,2125,2
243,2099,2098,2124,2
243,2099,2098,2124,2
243,2101,2099,2125,2
243,2101,2100,2126,2
243,2103,2100,2127,2
243,2103,2101,2127,2
243,2103,2102,2127,2
243,2101,2102,2126,2
243,2101,2098,2123,2
243,2100,2097,2123,2
243,2100,2097,2123,2
243,2099,2097,2123,2
243,2100,2098,2124,2
243,2100,2098,2125,2
243,2100,2099,2125,2
243,2101,2099,2125,2
243,2101,2099,2125,2
243,2098,2098,2123,2
243,2099,2098,2124,2
243,2101,2099,2124,2
243,2101,2101,2124,2
243,2102,2101,2126,2
243,2102,2101,2127,2
243,2102,2100,2128,2
243,2101,2100,2126,2
243,2098,2098,2123,2
243,2098,2097,2123,2
243,2099,2097,2123,2
243,2099,2099,2123,2
243,2100,2099,2123,2
243,2101,2100,2123,2
243,2100,2100,2123,2
243,2100,2099,2124,2
243,2100,2099,2123,2
243,2098,2099,2123,2
243,2099,2099,2124,2
243,2099,2100,2125,2
243,2101,2101,2126,2
243,2103,2102,2126,2
243,2102,2102,2126,2
243,2101,2100,2126,2
243,2099,2100,2122,2
243,2099,2096,2121,2
243,2099,2096,2121,2
243,2100,2097,2121,2
243,2099,2097,2121,2
243,2100,2097,2123,2
243,2100,2097,2124,2
243,2101,2098,2124,2
243,2101,2098,2124,2
243,2099,2098,2123,2
243,2098,2098,2123,2
243,2101,2098,2124,2
243,2101,2099,2126,2
243,2103,2100,2126,2
243,2103,2100,2127,2
243,2103,2101,2127,2
243,2102,2100,2127,2
243,2101,2099,2124,2
243,2098,2097,2122,2
243,2097,2097,2122,2
243,2097,2098,2123,2
243,2099,2098,2123,2
243,2099,2098,2124,2
243,2098,2098,2124,2
243,2100,2098,2125,2
243,2101,2098,2125,2
243,2099,2097,2122,2
243,2099,2098,2122,2
243,2100,2098,2124,2
243,2100,2101,2125,2
243,2101,2101,2127,2
243,2102,2102,2127,2
243,2101,2102,2125,2
243,2098,2102,2125,2
243,2098,2097,2123,2
243,2096,2096,2123,2
243,2097,2096,2122,2
243,2097,2096,2123,2
243,2098,2097,2124,2
243,2100,2098,2124,2
243,2099,2098,2124,2
243,2099,2098,2124,2
243,2099,2098,2123,2
243,2099,2097,2123,2
243,2100,2098,2124,2
243,2102,2099,2125,2
243,2101,2100,2125,2
243,2101,2100,2127,2
243,2101,2101,2127,2
243,2102,2100,2127,2
243,2100,2100,2124,2
243,2097,2097,2122,2
243,2097,2096,2122,2
243,2099,2096,2122,2
243,2098,2097,2122,2
243,2098,2097,2122,2
243,2099,2097,2124,2
243,2099,2098,2125,2
243,2099,2098,2126,2
243,2099,2098,2125,2
243,2097,2098,2123,2
243,2099,2098,2124,2
243,2099,2100,2125,2
243,2102,2101,2125,2
243,2102,2101,2126,2
243,2101,2101,2126,2
243,2101,2099,2127,2
243,2100,2098,2125,2
243,2097,2096,2122,2
243,2096,2096,2122,2
243,2097,2096,2123,2
243,2097,2098,2123,2
243,2097,2098,2124,2
243,2099,2098,2124,2
243,2099,2098,2123,2
243,2100,2097,2124,2
243,2100,2097,2123,2
243,2098,2097,2123,2
243,2099,2097,2124,2
243,2099,2099,2124,2
243,2101,2099,2126,2
243,2103,2100,2126,2
243,2102,2100,2125,2
243,2100,2099,2125,2
243,2098,2099,2122,2
243,2098,2096,2121,2
243,2098,2096,2121,2
243,2100,2097,2122,2
243,2099,2097,2121,2
243,2099,2097,2123,2
243,2099,2098,2124,2
243,2100,2098,2124,2
243,2100,2098,2123,2
243,2098,2097,2122,2
243,2098,2098,2122,2
243,2101,2099,2123,2
243,2100,2100,2125,2
243,2101,2101,2125,2
243,2101,2101,2127,2
243,2101,2101,2126,2
243,2100,2098,2126,2
243,2099,2097,2123,2
243,2096,2096,2121,2
243,2097,2097,2121,2
243,2097,2097,2123,2
243,2098,2097,2123,2
243,2098,2097,2123,2
243,2098,2098,2124,2
243,2099,2098,2125,2
243,2100,2098,2124,2
243,2098,2097,2123,2
243,2098,2098,2123,2
243,2099,2098,2125,2
243,2099,2100,2125,2
243,2100,2100,2127,2
243,2102,2101,2127,2
243,2101,2100,2124,2
243,2097,2100,2124,2
243,2097,2096,2122,2
243,2096,2096,2122,2
243,2097,2096,2121,2
243,2097,2097,2121,2
243,2098,2097,2123,2
243,2100,2097,2123,2
243,2099,2098,2123,2
243,2099,2098,2123,2
243,2099,2098,2123,2
243,2099,2097,2123,2
243,2099,2098,2124,2
243,2102,2099,2124,2
243,2101,2100,2126,2
243,2101,2100,2126,2
243,2101,2100,2126,2
243,2100,2099,2126,2
243,2099,2099,2122,2
243,2096,2097,2120,2
243,2096,2096,2120,2
243,2099,2097,2121,2
243,2099,2098,2122,2
243,2099,2098,2122,2
243,2099,2098,2123,2
243,2099,2098,2123,2
243,2099,2098,2124,2
243,2099,2097,2123,2
243,2098,2097,2123,2
243,2100,2097,2123,2
243,2100,2099,2124,2
243,2102,2100,2124,2
243,2102,2101,2125,2
243,2101,2101,2125,2
243,2100,2099,2126,2
243,2097,2098,2123,2
243,2097,2096,2122,2
243,2097,2096,2122,2
243,2098,2096,2123,2
243,2098,2096,2122,2
243,2099,2097,2123,2
243,2101,2098,2123,2
243,2100,2098,2123,2
243,2099,2098,2123,2
243,2099,2097,2122,2
243,2098,2097,2122,2
243,2100,2098,2123,2
243,2100,2099,2123,2
243,2102,2099,2125,2
243,2102,2100,2126,2
243,2102,2100,2125,2
243,2099,2098,2125,2
243,2098,2098,2121,2
243,2096,2097,2120,2
243,2097,2097,2121,2
243,2100,2098,2122,2
243,2099,2098,2122,2
243,2099,2098,2122,2
243,2099,2099,2123,2
243,2100,2099,2123,2
243,2100,2099,2123,2
243,2098,2098,2122,2
243,2099,2098,2123,2
243,2102,2099,2124,2
243,2102,2101,2125,2
243,2103,2101,2125,2
243,2103,2101,2126,2
243,2102,2100,2124,2
243,2101,2097,2124,2
243,2101,2096,2122,2
243,2098,2096,2122,2
243,2098,2096,2123,2
243,2098,2097,2123,2
243,2099,2097,2123,2
243,2100,2097,2123,2
243,2099,2098,2123,2
243,2099,2098,2124,2
243,2099,2098,2123,2
243,2099,2097,2123,2
243,2100,2098,2123,2
243,2101,2098,2124,2
243,2101,2099,2125,2
243,2102,2100,2126,2
243,2102,2100,2126,2
243,2102,2099,2123,2
243,2098,2099,2123,2
243,2098,2096,2122,2
243,2098,2096,2122,2
243,2099,2097,2122,2
243,2098,2097,2122,2
243,2099,2097,2123,2
243,2099,2097,2124,2
243,2099,2098,2124,2
243,2099,2097,2124,2
243,2099,2097,2123,2
243,2097,2097,2123,2
243,2098,2098,2124,2
243,2101,2099,2125,2
243,2101,2100,2125,2
243,2101,2100,2127,2
243,2101,2100,2126,2
243,2100,2098,2126,2
243,2099,2097,2123,2
243,2096,2096,2121,2
243,2096,2097,2121,2
243,2097,2097,2123,2
243,2097,2097,2123,2
243,2098,2097,2123,2
243,2099,2098,2124,2
243,2098,2098,2123,2
243,2099,2097,2124,2
243,2099,2097,2122,2
243,2099,2098,2122,2
243,2100,2098,2124,2
243,2100,2100,2125,2
243,2101,2100,2127,2
243,2103,2100,2127,2
243,2101,2100,2125,2
243,2100,2097,2125,2
243,2098,2097,2122,2
243,2098,2096,2122,2
243,2098,2096,2122,2
243,2099,2097,2123,2
243,2098,2097,2123,2
243,2100,2097,2124,2
243,2100,2098,2124,2
243,2100,2099,2124,2
243,2099,2099,2124,2
243,2099,2098,2123,2
243,2099,2098,2123,2
243,2101,2099,2123,2
243,2101,2100,2124,2
243,2102,2100,2126,2
243,2102,2100,2127,2
243,2102,2100,2126,2
243,2099,2097,2126,2
243,2098,2096,2123,2
243,2096,2095,2122,2
243,2098,2096,2123,2
243,2099,2097,2123,2
243,2099,2097,2123,2
243,2099,2097,2124,2
243,2099,2099,2124,2
243,2100,2099,2124,2
243,2100,2099,2123,2
243,2098,2098,2123,2
243,2099,2100,2124,2
243,2100,2100,2125,2
243,2100,2100,2126,2
243,2102,2101,2126,2
243,2102,2101,2126,2
243,2100,2100,2124,2
243,2098,2097,2124,2
243,2097,2096,2122,2
243,2097,2096,2122,2
243,2098,2096,2124,2
243,2098,2097,2124,2
243,2098,2097,2125,2
243,2100,2098,2124,2
243,2099,2098,2123,2
243,2099,2097,2124,2
243,2098,2097,2122,2
243,2098,2097,2123,2
243,2100,2098,2123,2
243,2101,2099,2125,2
243,2101,2100,2125,2
243,2102,2100,2127,2
243,2100,2101,2126,2
243,2100,2098,2126,2
243,2098,2098,2123,2
243,2098,2096,2122,2
243,2098,2097,2122,2
243,2099,2097,2122,2
243,2099,2097,2122,2
243,2099,2097,2123,2
243,2099,2097,2125,2
243,2099,2097,2124,2
243,2100,2096,2124,2
243,2100,2096,2122,2
243,2098,2097,2122,2
243,2099,2098,2124,2
243,2102,2099,2125,2
243,2102,2100,2125,2
243,2102,2100,2127,2
243,2102,2100,2126,2
243,2100,2098,2126,2
243,2099,2097,2123,2
243,2096,2096,2121,2
243,2097,2097,2121,2
243,2098,2097,2123,2
243,2098,2098,2123,2
243,2099,2098,2123,2
243,2100,2099,2124,2
243,2098,2099,2123,2
243,2098,2097,2124,2
243,2099,2097,2123,2
243,2099,2098,2123,2
243,2100,2098,2125,2
243,2100,2099,2126,2
243,2101,2100,2127,2
243,2102,2100,2127,2
243,2101,2099,2124,2
243,2100,2096,2124,2
243,2098,2096,2121,2
243,2098,2095,2121,2
243,2099,2096,2121,2
243,2100,2097,2121,2
243,2099,2097,2121,2
243,2100,2097,2122,2
243,2100,2098,2123,2
243,2100,2097,2123,2
243,2099,2097,2121,2
243,2099,2096,2121,2
243,2100,2097,2123,2
243,2102,2098,2124,2
243,2101,2099,2124,2
243,2102,2100,2126,2
243,2101,2100,2126,2
243,2101,2098,2124,2
243,2098,2096,2124,2
243,2098,2096,2122,2
243,2096,2096,2122,2
243,2097,2096,2123,2
243,2099,2097,2123,2
243,2099,2098,2123,2
243,2099,2098,2124,2
243,2099,2099,2124,2
243,2099,2098,2125,2
243,2099,2098,2124,2
243,2097,2098,2123,2
243,2099,2100,2124,2
243,2100,2100,2126,2
243,2100,2101,2126,2
243,2102,2101,2126,2
243,2102,2101,2126,2
243,2100,2099,2123,2
243,2099,2097,2123,2
243,2098,2096,2121,2
243,2098,2097,2121,2
243,2098,2097,2123,2
243,2098,2098,2123,2
243,2098,2098,2124,2
243,2100,2098,2124,2
243,2099,2098,2123,2
243,2098,2098,2124,2
243,2097,2098,2122,2
243,2097,2098,2123,2
243,2099,2099,2123,2
243,2101,2100,2125,2
243,2101,2100,2125,2
243,2102,2100,2126,2
243,2100,2100,2125,2
243,2100,2097,2125,2
243,2098,2097,2122,2
243,2098,2095,2121,2
243,2099,2096,2121,2
243,2100,2097,2121,2
243,2099,2097,2121,2
243,2099,2098,2123,2
243,2099,2098,2125,2
243,2099,2098,2125,2
243,2098,2097,2125,2
243,2098,2097,2124,2
243,2097,2097,2124,2
243,2099,2098,2125,2
243,2101,2100,2125,2
243,2101,2100,2125,2
243,2101,2100,2126,2
243,2101,2099,2124,2
243,2098,2097,2124,2
243,2097,2096,2122,2
243,2095,2096,2121,2
243,2097,2097,2122,2
243,2097,2098,2123,2
243,2097,2098,2123,2
243,2098,2098,2123,2
243,2099,2098,2123,2
243,2098,2098,2122,2
243,2098,2097,2123,2
243,2100,2097,2122,2
243,2100,2099,2122,2
243,2100,2099,2124,2
243,2100,2100,2125,2
243,2102,2100,2125,2
243,2102,2100,2125,2
243,2100,2099,2123,2
243,2099,2097,2123,2
243,2097,2096,2121,2
243,2097,2095,2121,2
243,2100,2096,2121,2
243,2100,2097,2121,2
243,2098,2097,2121,2
243,2099,2098,2123,2
243,2099,2099,2123,2
243,2099,2098,2123,2
243,2098,2098,2121,2
243,2098,2098,2122,2
243,2100,2099,2122,2
243,2101,2100,2123,2
243,2101,2100,2123,2
243,2101,2100,2125,2
243,2100,2100,2125,2
243,2100,2098,2123,2
243,2096,2097,2123,2
243,2096,2097,2120,2
243,2095,2097,2120,2
243,2097,2097,2122,2
243,2098,2097,2122,2
243,2098,2097,2122,2
243,2099,2097,2124,2
243,2099,2098,2124,2
243,2099,2097,2124,2
243,2099,2097,2122,2
243,2097,2097,2122,2
243,2098,2098,2123,2
243,2101,2099,2124,2
243,2101,2101,2125,2
243,2102,2101,2125,2
243,2101,2101,2124,2
243,2098,2098,2121,2
243,2097,2096,2120,2
243,2099,2096,2119,2
243,2097,2097,2119,2
243,2097,2097,2122,2
243,2097,2097,2122,2
243,2099,2097,2122,2
243,2100,2098,2123,2
243,2099,2098,2122,2
243,2099,2097,2123,2
243,2099,2097,2122,2
243,2099,2098,2123,2
243,2099,2099,2123,2
243,2101,2099,2125,2
243,2100,2100,2125,2
243,2100,2099,2126,2
243,2101,2099,2125,2
243,2098,2097,2121,2
243,2096,2097,2121,2
243,2096,2095,2121,2
243,2097,2096,2121,2
243,2097,2097,2121,2
243,2097,2097,2121,2
243,2098,2097,2123,2
243,2099,2098,2123,2
243,2099,2098,2123,2
243,2097,2097,2123,2
243,2098,2097,2122,2
243,2098,2098,2123,2
243,2099,2098,2125,2
243,2101,2099,2125,2
243,2101,2099,2125,2
243,2101,2099,2125,2
243,2101,2098,2123,2
243,2098,2096,2123,2
243,2098,2096,2121,2
243,2096,2096,2121,2
243,2098,2096,2122,2
243,2098,2097,2122,2
243,2098,2097,2123,2
243,2099,2098,2123,2
243,2098,2098,2123,2
243,2097,2098,2122,2
243,2097,2097,2122,2
243,2099,2097,2122,2
243,2098,2098,2124,2
243,2101,2098,2124,2
243,2101,2100,2125,2
243,2102,2100,2125,2
243,2102,2100,2125,2
243,2099,2098,2122,2
243,2098,2096,2122,2
243,2098,2095,2120,2
243,2098,2096,2121,2
243,2099,2096,2121,2
243,2099,2096,2121,2
243,2098,2096,2122,2
243,2099,2097,2123,2
243,2100,2097,2123,2
243,2098,2096,2121,2
243,2097,2096,2121,2
243,2097,2096,2122,2
243,2099,2098,2122,2
243,2100,2099,2123,2
243,2099,2100,2123,2
243,2100,2100,2125,2
243,2098,2100,2124,2
243,2098,2097,2122,2
243,2095,2096,2122,2
243,2096,2096,2121,2
243,2096,2096,2121,2
243,2097,2096,2123,2
243,2099,2097,2122,2
243,2098,2097,2123,2
243,2098,2097,2123,2
243,2098,2097,2123,2
243,2097,2097,2123,2
243,2097,2096,2122,2
243,2096,2097,2122,2
243,2098,2098,2124,2
243,2101,2099,2125,2
243,2101,2100,2125,2
243,2100,2099,2125,2
243,2099,2099,2123,2
243,2096,2097,2121,2
243,2096,2096,2121,2
243,2097,2096,2120,2
243,2096,2096,2122,2
243,2097,2096,2122,2
243,2097,2096,2123,2
243,2098,2096,2123,2
243,2098,2097,2123,2
243,2097,2097,2122,2
243,2097,2096,2122,2
243,2098,2096,2122,2
243,2098,2098,2123,2
243,2100,2099,2123,2
243,2101,2099,2125,2
243,2100,2099,2125,2
243,2100,2098,2126,2
243,2099,2098,2124,2
243,2097,2096,2121,2
243,2095,2096,2121,2
243,2095,2095,2121,2
243,2097,2096,2121,2
243,2098,2097,2122,2
243,2097,2097,2122,2
243,2099,2097,2123,2
243,2098,2098,2123,2
243,2098,2097,2123,2
243,2096,2097,2123,2
243,2097,2097,2123,2
243,2097,2098,2124,2
243,2099,2098,2125,2
243,2101,2100,2125,2
243,2100,2100,2125,2
243,2098,2100,2125,2
243,2098,2097,2123,2
243,2095,2096,2123,2
243,2095,2096,2120,2
243,2094,2096,2120,2
243,2095,2096,2122,2
243,2098,2097,2122,2
243,2098,2097,2123,2
243,2098,2097,2123,2
243,2098,2097,2122,2
243,2097,2097,2121,2
243,2097,2097,2121,2
243,2099,2097,2121,2
243,2099,2098,2124,2
243,2100,2098,2124,2
243,2100,2099,2125,2
243,2102,2099,2125,2
243,2101,2099,2124,2
243,2098,2097,2121,2
243,2097,2095,2120,2
243,2097,2095,2119,2
243,2097,2096,2121,2
243,2097,2096,2121,2
243,2097,2096,2121,2
243,2096,2097,2121,2
243,2097,2097,2123,2
243,2098,2097,2122,2
243,2096,2096,2120,2
243,2096,2096,2120,2
243,2096,2097,2122,2
243,2099,2098,2122,2
243,2100,2099,2123,2
243,2099,2099,2123,2
243,2100,2098,2125,2
243,2097,2098,2123,2
243,2097,2094,2121,2
243,2095,2094,2121,2
243,2096,2094,2120,2
243,2095,2095,2120,2
243,2096,2095,2122,2
243,2098,2096,2122,2
243,2097,2096,2123,2
243,2097,2096,2123,2
243,2097,2096,2122,2
243,2096,2095,2122,2
243,2097,2095,2122,2
243,2097,2096,2123,2
243,2099,2098,2125,2
243,2101,2099,2125,2
243,2101,2100,2125,2
243,2100,2099,2125,2
243,2098,2099,2122,2
243,2096,2097,2120,2
243,2095,2095,2120,2
243,2098,2095,2120,2
243,2098,2096,2121,2
243,2097,2096,2121,2
243,2097,2097,2122,2
243,2098,2097,2122,2
243,2098,2098,2122,2
243,2097,2098,2121,2
243,2097,2097,2121,2
243,2099,2097,2121,2
243,2099,2098,2122,2
243,2100,2099,2122,2
243,2100,2099,2124,2
243,2100,2099,2124,2
243,2100,2098,2125,2
243,2099,2098,2123,2
243,2096,2095,2123,2
243,2096,2095,2121,2
243,2096,2096,2121,2
243,2098,2096,2121,2
243,2099,2097,2121,2
243,2098,2097,2121,2
243,2099,2097,2123,2
243,2098,2097,2123,2
243,2098,2096,2122,2
243,2096,2097,2122,2
243,2098,2097,2123,2
243,2098,2098,2123,2
243,2099,2098,2125,2
243,2101,2099,2125,2
243,2101,2099,2124,2
243,2099,2099,2124,2
243,2099,2096,2122,2
243,2096,2095,2122,2
243,2096,2095,2121,2
243,2095,2095,2121,2
243,2096,2096,2123,2
243,2098,2096,2122,2
243,2098,2097,2123,2
243,2099,2097,2123,2
243,2099,2097,2122,2
243,2097,2096,2121,2
243,2098,2096,2121,2
243,2101,2097,2122,2
243,2100,2098,2124,2
243,2101,2098,2124,2
243,2101,2100,2125,2
243,2101,2100,2125,2
243,2100,2100,2124,2
243,2097,2097,2121,2
243,2097,2095,2120,2
243,2098,2095,2120,2
243,2098,2097,2121,2
243,2098,2097,2121,2
243,2098,2097,2121,2
243,2098,2097,2121,2
243,2099,2097,2123,2
243,2100,2097,2121,2
243,2098,2096,2121,2
243,2098,2096,2121,2
243,2098,2098,2122,2
243,2099,2099,2122,2
243,2100,2100,2123,2
243,2100,2100,2123,2
243,2101,2099,2124,2
243,2098,2098,2123,2
243,2098,2095,2121,2
243,2096,2095,2121,2
243,2096,2095,2121,2
243,2096,2096,2121,2
243,2097,2096,2122,2
243,2098,2097,2122,2
243,2097,2097,2122,2
243,2097,2097,2122,2
243,2097,2096,2122,2
243,2096,2096,2122,2
243,2097,2096,2122,2
243,2097,2097,2122,2
243,2100,2098,2124,2
243,2102,2099,2125,2
243,2102,2099,2125,2
243,2100,2098,2125,2
243,2098,2098,2122,2
243,2095,2096,2120,2
243,2095,2096,2120,2
243,2097,2096,2120,2
243,2097,2096,2121,2
243,2097,2096,2121,2
243,2097,2097,2122,2
243,2098,2097,2122,2
243,2098,2097,2122,2
243,2096,2096,2121,2
243,2097,2096,2121,2
243,2099,2096,2122,2
243,2099,2098,2123,2
243,2100,2099,2123,2
243,2101,2099,2125,2
243,2100,2099,2125,2
243,2100,2098,2125,2
243,2099,2097,2122,2
243,2096,2095,2120,2
243,2095,2095,2120,2
243,2095,2096,2121,2
243,2096,2096,2121,2
243,2097,2096,2121,2
243,2097,2096,2122,2
243,2099,2096,2123,2
243,2098,2097,2122,2
243,2098,2096,2122,2
243,2098,2097,2122,2
243,2099,2097,2124,2
243,2099,2098,2124,2
243,2100,2099,2125,2
243,2102,2100,2124,2
243,2101,2100,2122,2
243,2097,2100,2122,2
243,2097,2096,2121,2
243,2095,2095,2121,2
243,2096,2095,2120,2
243,2096,2096,2121,2
243,2097,2096,2122,2
243,2098,2097,2122,2
243,2098,2098,2123,2
243,2098,2098,2123,2
243,2098,2098,2122,2
243,2096,2097,2121,2
243,2097,2097,2122,2
243,2100,2098,2123,2
243,2100,2099,2125,2
243,2101,2099,2125,2
243,2101,2100,2126,2
243,2100,2099,2126,2
243,2098,2099,2124,2
243,2095,2097,2121,2
243,2095,2096,2121,2
243,2097,2096,2121,2
243,2097,2097,2122,2
243,2097,2097,2122,2
243,2098,2097,2122,2
243,2097,2098,2122,2
243,2097,2097,2123,2
243,2098,2097,2122,2
243,2096,2096,2122,2
243,2098,2096,2122,2
243,2098,2098,2124,2
243,2101,2099,2124,2
243,2102,2100,2125,2
243,2101,2100,2125,2
243,2101,2099,2126,2
243,2097,2098,2123,2
243,2097,2095,2122,2
243,2095,2095,2122,2
243,2096,2095,2122,2
243,2096,2096,2122,2
243,2097,2097,2123,2
243,2099,2098,2123,2
243,2099,2098,2122,2
243,2098,2098,2122,2
243,2098,2096,2121,2
243,2097,2096,2121,2
243,2098,2097,2122,2
243,2098,2098,2123,2
243,2100,2098,2125,2
243,2102,2099,2125,2
243,2102,2099,2125,2
243,2099,2098,2125,2
243,2097,2098,2121,2
243,2095,2096,2120,2
243,2095,2096,2120,2
243,2098,2097,2120,2
243,2098,2097,2121,2
243,2097,2097,2121,2
243,2097,2098,2122,2
243,2098,2098,2122,2
243,2098,2098,2122,2
243,2097,2097,2121,2
243,2097,2097,2122,2
243,2100,2098,2122,2
243,2100,2100,2124,2
243,2101,2100,2124,2
243,2101,2100,2125,2
243,2100,2100,2124,2
243,2098,2098,2124,2
243,2098,2097,2121,2
243,2095,2095,2120,2
243,2096,2095,2120,2
243,2096,2097,2121,2
243,2097,2097,2121,2
243,2098,2097,2121,2
243,2097,2097,2121,2
243,2099,2097,2122,2
243,2098,2097,2122,2
243,2098,2096,2122,2
243,2098,2097,2122,2
243,2099,2097,2123,2
243,2099,2098,2124,2
243,2100,2099,2125,2
243,2101,2100,2125,2
243,2100,2099,2123,2
243,2096,2099,2123,2
243,2096,2095,2121,2
243,2095,2095,2121,2
243,2096,2095,2120,2
243,2096,2096,2120,2
243,2097,2096,2122,2
243,2098,2096,2122,2
243,2098,2098,2122,2
243,2098,2097,2122,2
243,2097,2097,2121,2
243,2096,2096,2121,2
243,2097,2097,2123,2
